0
0
0
0
0
0
0
0
0
0
0
0.01
0.01
0
-0.03
-0.05
-0.05
0
0.13
0.36
0.66
1.01
1.37
1.72
2.06
2.4
2.79
3.24
3.8
4.42
5.06
5.66
6.2
6.68
7.15
7.68
8.31
9.14
10.09
11.04
11.88
12.56
13.14
13.76
14.65
15.96
17.91
20.32
22.9
25.38
27.58
29.57
31.68
34.32
37.81
42.54
48.15
54.1
59.83
64.97
69.58
74.14
79.34
85.71
93.76
103
112.62
121.73
129.77
136.75
143.3
150.75
157.77
166.64
177.95
191.79
206.97
220.57
228.25
225.36
208.53
176.87
132.76
80.05
23.07
-34.94
-92.44
-149.16
-205.23
-260.37
-313.74
-363.87
-409.83
-450.91
-486.5
-515.74
-537.23
-549.22
-549.96
-538.37
-514.21
-478.67
-433.88
-382.45
-327.02
-269.84
-212.63
-156.66
-102.95
-52.37
-5.9
35.58
71.43
101.35
125.5
144.38
158.69
169.15
176.37
180.75
182.57
182.07
179.51
175.23
169.65
163.18
156.15
148.81
141.3
133.69
126.02
118.33
110.69
103.16
95.8
88.68
81.83
75.25
68.95
62.95
57.25
51.86
46.78
42.03
37.59
33.45
29.61
26.07
22.81
19.83
17.11
14.67
12.48
10.54
8.83
7.35
6.07
4.97
4.05
3.27
2.62
2.09
1.65
1.3
1.01
0.79
0.61
0.47
0.37
0.29
0.23
0.19
0.16
0.15
0.15
0.16
0.17
0.19
0.22
0.26
0.3
0.34
0.38
0.42
0.47
0.52
0.57
0.62
0.67
0.73
0.79
0.86
0.93
1.01
1.1
1.2
1.31
1.44
1.58
1.73
1.91
2.1
2.32
2.56
2.83
3.12
3.44
3.8
4.18
4.6
5.06
5.56
6.09
6.66
7.28
7.93
8.63
9.38
10.17
11
11.89
12.81
13.78
14.82
15.92
17.08
18.31
19.57
20.86
22.11
23.26
24.2
24.84
25.03
24.66
23.64
21.9
19.43
16.28
12.5
8.26
3.77
-0.78
-5.16
-9.17
-12.63
-15.47
-17.62
-19.09
-19.9
-20.1
-19.77
-18.99
-17.85
-16.46
-14.93
-13.35
-11.78
-10.22
-8.66
-7.1
-5.49
-3.82
-2.11
-0.43
1.16
2.64
4.08
5.49
6.95
8.58
10.4
12.38
14.35
16.16
17.74
19.25
20.66
22.19
24.07
26.38
28.94
31.41
33.37
34.65
35.43
35.77
36.08
36.82
38.17
39.85
41.26
41.7
40.75
38.58
35.21
31.1
26.75
22.27
17.1
10.05
-0.71
-17.75
-39.14
-64.73
-93.77
-124.33
-152.96
-175.35
-187.49
-187.14
-174.7
-153.06
-127.18
-101.51
-78.91
-60.24
-45.03
-32.38
-21.74
-12.96
-5.98
-0.89
2.85
6.05
9.33
12.78
15.98
18.22
19
18.39
16.63
14.37
12.23
10.49
9
7.32
5.05
2.01
-1.63
-5.62
-9.62
-13.44
-17.18
-21.27
-26.22
-32.33
-39.35
-46.35
-52.02
-55.02
-54.48
-50.29
-43.15
-34.17
-24.47
-14.8
-5.46
3.57
12.36
20.93
29.06
36.47
42.89
48.13
52.1
54.83
56.41
56.97
56.73
55.94
54.93
53.95
53.16
52.57
52.04
51.41
50.53
49.33
47.83
46.06
44.09
41.92
39.53
36.89
33.99
30.8
27.34
23.61
19.63
15.43
11.04
6.47
1.74
-3.11
-7.99
-12.81
-17.47
-21.93
-26.26
-30.65
-35.32
-40.5
-46.42
-53.23
-60.99
-69.46
-78.02
-85.67
-91.15
-93.38
-91.75
-86.39
-78.03
-67.72
-56.41
-44.73
-32.95
-21.15
-9.4
2.1
13.1
23.37
32.76
41.16
48.38
54.16
58.27
60.59
61.32
60.93
60.06
59.28
58.9
58.92
59.08
59.06
58.59
57.58
56.04
54.06
51.73
49.15
46.43
43.68
40.94
38.15
35.16
31.8
28
23.82
19.44
15.07
10.79
6.56
2.21
-2.41
-7.36
-12.56
-17.88
-23.16
-28.31
-33.32
-38.25
-43.25
-48.53
-54.45
-61.31
-69.18
-77.65
-85.79
-92.24
-95.69
-95.25
-90.84
-83.09
-73.08
-61.87
-50.2
-38.44
-26.66
-14.92
-3.36
7.81
18.33
28.02
36.75
44.36
50.64
55.38
58.5
60.06
60.4
60
59.35
58.8
58.44
58.14
57.66
56.78
55.38
53.46
51.13
48.58
45.98
43.47
41.07
38.72
36.22
33.37
30.02
26.18
22.01
17.76
13.62
9.64
5.73
1.71
-2.55
-7.11
-11.96
-17.07
-22.37
-27.83
-33.33
-38.78
-44.07
-49.29
-54.72
-60.8
-67.84
-75.74
-83.76
-90.61
-94.81
-95.25
-91.57
-84.22
-74.22
-62.72
-50.62
-38.42
-26.33
-14.48
-2.99
7.89
17.98
27.19
35.5
42.85
49.12
54.07
57.52
59.4
59.87
59.27
58.08
56.77
55.73
55.15
54.95
54.85
54.43
53.32
51.34
48.6
45.43
42.31
39.59
37.4
35.56
33.67
31.29
28.13
24.2
19.78
15.32
11.18
7.45
3.92
0.22
-4.03
-8.95
-14.37
-19.96
-25.39
-30.46
-35.18
-39.66
-44.11
-48.81
-54.16
-60.51
-68.04
-76.34
-84.45
-90.86
-94.12
-93.28
-88.29
-79.98
-69.6
-58.35
-46.99
-35.78
-24.71
-13.73
-2.91
7.55
17.43
26.55
34.78
41.91
47.73
52
54.61
55.68
55.54
54.72
53.74
53.03
52.78
52.97
53.33
53.54
53.24
52.2
50.34
47.77
44.74
41.56
38.47
35.6
32.91
30.2
27.29
24.07
20.61
17.06
13.61
10.27
6.93
3.34
-0.74
-5.41
-10.56
-15.97
-21.36
-26.54
-31.41
-35.99
-40.42
-44.93
-49.81
-55.39
-61.91
-69.31
-77.11
-84.32
-89.67
-91.98
-90.57
-85.45
-77.32
-67.24
-56.25
-45.05
-33.97
-23.05
-12.29
-1.75
8.43
18.01
26.83
34.73
41.57
47.16
51.35
54.05
55.33
55.4
54.68
53.68
52.88
52.58
52.88
53.54
54.11
54.06
53
50.84
47.84
44.46
41.17
38.25
35.7
33.29
30.71
27.71
24.24
20.43
16.5
12.63
8.88
5.17
1.29
-2.96
-7.65
-12.71
-17.94
-23.13
-28.14
-32.92
-37.54
-42.13
-46.84
-51.92
-57.69
-64.38
-71.91
-79.67
-86.55
-91.22
-92.53
-89.98
-83.83
-74.89
-64.16
-52.49
-40.42
-28.28
-16.34
-4.88
5.81
15.54
24.3
32.12
38.99
44.79
49.32
52.43
54.13
54.62
54.21
53.26
52.09
50.99
50.16
49.74
49.73
49.96
50.08
49.73
48.59
46.59
43.91
40.86
37.79
34.91
32.17
29.36
26.22
22.55
18.4
14.03
9.8
6
2.72
-0.24
-3.25
-6.7
-10.81
-15.55
-20.64
-25.74
-30.55
-34.93
-38.96
-42.89
-47.08
-51.94
-57.76
-64.55
-71.83
-78.63
-83.66
-85.72
-84.07
-78.68
-70.18
-59.51
-47.6
-35.07
-22.23
-9.17
4.01
17.15
30.03
42.41
54.12
65.02
75
84.01
92.09
99.39
106.11
112.43
118.42
124.1
129.52
134.95
140.89
147.92
156.4
166.3
177.16
188.26
198.99
209.11
218.85
228.78
239.48
251.36
264.62
279.29
295.23
311.92
328.15
342.04
351.38
354.41
350.47
340.25
325.33
307.44
287.65
266.26
243.15
218.48
193
167.98
144.53
123.08
103.12
83.54
63.33
42.03
19.9
-2.38
-24.14
-45.18
-65.83
-86.79
-108.8
-132.27
-157.08
-182.58
-207.71
-231.34
-252.49
-270.51
-285.18
-296.74
-305.9
-313.52
-320.38
-326.71
-332.01
-335.17
-334.93
-330.56
-322.37
-311.79
-300.83
-291.33
-284.28
-279.6
-276.51
-274.16
-272.11
-270.5
-269.82
-270.5
-272.86
-276.9
-282.45
-289.13
-296.26
-302.87
-307.71
-309.5
-307.13
-300.01
-288.2
-272.44
-254.05
-234.63
-215.78
-198.75
-184.21
-172.32
-162.83
-155.43
-149.84
-145.96
-143.72
-142.95
-143.36
-144.63
-146.45
-148.42
-149.82
-149.3
-144.89
-134.37
-115.94
-88.83
-53.49
-11.52
34.78
82.72
129.58
172.67
209.53
238.36
258.37
270.02
274.85
274.86
271.95
267.45
262.15
256.52
251.04
246.07
241.74
237.66
232.97
226.62
217.82
206.27
192.21
176.33
159.45
142.28
125.26
108.62
92.3
76.31
60.76
45.96
32.38
20.36
9.94
0.8
-7.58
-15.64
-23.53
-31.03
-37.77
-43.52
-48.5
-53.3
-58.66
-65.15
-72.85
-81.35
-89.9
-97.82
-104.78
-110.96
-116.94
-123.43
-130.84
-139.06
-147.22
-153.59
-155.69
-150.67
-135.92
-110.11
-73.93
-30.31
16.22
60.81
99.7
131.15
155.43
173.97
188.27
198.91
205.16
205.1
196.37
177.15
147.34
109.33
68
29.55
-0.39
-18.65
-25.56
-24.32
-19.27
-13.9
-9.77
-6.67
-3.82
-1.04
0.78
0.31
-3.13
-8.9
-15.07
-19.24
-19.71
-16.22
-10.06
-3.44
1.44
3.24
1.95
-1.31
-4.81
-7.01
-7.25
-6.01
-4.66
-4.77
-7.41
-12.66
-19.6
-26.81
-33.04
-37.71
-41.18
-44.34
-48.11
-52.98
-58.62
-64.06
-68.09
-69.77
-68.66
-64.82
-58.46
-49.79
-39.03
-26.69
-13.84
-1.98
7.41
13.55
16.79
18.48
20.41
23.95
29.56
36.75
44.57
52.14
58.99
65.03
70.32
74.77
78.14
80.15
80.53
79.26
76.47
72.35
67.04
60.64
53.27
45.07
36.27
27.04
17.37
7.1
-4.02
-16.03
-28.71
-41.47
-53.61
-64.58
-74.15
-82.45
-89.89
-96.89
-103.83
-110.99
-118.56
-126.41
-133.83
-139.37
-140.97
-136.63
-125.29
-107.56
-85.69
-62.92
-42.28
-25.52
-12.73
-2.68
6.3
15.51
25.36
35.51
45.24
53.84
60.85
66.15
69.82
72.09
73.28
73.72
73.69
73.44
73.15
72.94
72.89
72.99
73.11
73
72.33
70.87
68.55
65.56
62.25
58.94
55.82
52.83
49.76
46.33
42.39
37.93
33.06
27.94
22.61
17.08
11.27
5.16
-1.16
-7.51
-13.72
-19.73
-25.7
-31.96
-38.92
-46.85
-55.69
-64.85
-73.24
-79.51
-82.43
-81.25
-76
-67.4
-56.65
-44.95
-33.22
-21.91
-11.12
-0.72
9.45
19.46
29.25
38.6
47.12
54.37
59.9
63.51
65.28
65.61
65.1
64.28
63.55
63.05
62.76
62.57
62.34
61.98
61.36
60.36
58.88
56.83
54.19
51.01
47.45
43.69
39.95
36.35
32.91
29.5
25.88
21.8
17.08
11.68
5.77
-0.39
-6.54
-12.49
-18.18
-23.7
-29.27
-35.13
-41.56
-48.8
-56.98
-66.06
-75.6
-84.78
-92.43
-97.3
-98.37
-95.19
-88
-77.69
-65.37
-52.13
-38.73
-25.55
-12.72
-0.28
11.71
23.07
33.6
43.05
51.15
57.66
62.34
65.08
65.94
65.25
63.54
61.45
59.49
58
57.03
56.48
56.1
55.61
54.7
53.14
50.79
47.77
44.48
41.45
39.14
37.66
36.64
35.3
32.71
28.16
21.49
13.1
3.92
-4.96
-12.6
-18.5
-22.68
-25.62
-28.06
-30.81
-34.62
-40.03
-47.23
-56.02
-65.61
-74.79
-82.07
-86.18
-86.44
-83.02
-76.81
-69.02
-60.76
-52.56
-44.4
-35.75
-25.99
-14.66
-1.76
12.16
26.12
38.93
49.52
57.23
62.03
64.42
65.29
65.57
66.04
67.18
69.08
71.63
74.5
77.3
79.53
80.69
80.36
78.21
74.18
68.44
61.46
53.86
46.33
39.46
33.62
28.84
24.81
20.94
16.49
10.86
3.81
-4.42
-13.12
-21.47
-28.9
-35.36
-41.39
-47.84
-55.45
-64.49
-74.58
-84.77
-93.86
-100.69
-104.45
-104.71
-101.44
-94.86
-85.37
-73.48
-59.83
-45.18
-30.37
-16.15
-3.01
8.89
19.75
29.95
39.78
49.29
58.24
66.23
72.92
78.17
82.11
85.05
87.32
89.08
90.32
90.77
90.08
87.96
84.38
79.6
74.19
68.8
64
60.07
56.96
54.38
52.02
49.66
47.22
44.78
42.42
40.2
38.13
36.25
34.61
33.23
32.01
30.63
28.57
25.26
20.19
13.06
3.85
-7.18
-19.41
-31.89
-43.35
-52.45
-58.06
-59.52
-56.76
-50.33
-41.07
-29.9
-17.53
-4.45
9.06
22.82
36.64
50.26
63.39
75.76
87.16
97.43
106.43
114.01
120.13
124.9
128.72
132.2
135.98
140.52
145.98
152.31
159.46
167.47
176.11
184.43
190.49
191.81
186.4
173.99
156.52
137.54
120.78
108.54
100.86
95.86
90.99
84.33
75.39
64.99
54.57
45.39
37.96
32.01
26.66
20.96
14.18
6.21
-2.47
-11.13
-19.19
-26.58
-33.68
-41.17
-49.74
-60.07
-73.12
-90.17
-112.38
-139.91
-170.98
-201.72
-227.22
-243.15
-247.43
-240.75
-225.74
-205.5
-182.18
-156.69
-129.29
-100.62
-72.21
-46.09
-23.92
-6.17
7.97
19.99
31.07
41.42
50.24
56.12
57.57
53.55
44.16
31.18
18.42
10.95
13.48
28.02
52.32
79.88
101.81
109.85
98.94
68.28
20.81
-38.14
-102.17
-164.5
-218.45
-258.39
-280.8
-285.44
-275.47
-256.45
-234.71
-216.01
-205.15
-205.47
-218.4
-242.33
-272.08
-299.57
-316.44
-317.63
-303.87
-281.47
-259.3
-244.48
-239.03
-239.7
-240.26
-235.03
-221.37
-199.78
-172.25
-140.27
-104.14
-63.78
-20.32
23
61.5
90.71
108.38
115.5
115.58
113
111.16
111.49
113.39
115.32
115.85
114.42
111.41
107.62
103.85
100.35
96.79
92.57
87.23
80.7
73.49
66.34
59.89
54.34
49.41
44.44
38.79
32.12
24.54
16.5
8.62
1.37
-5.07
-10.92
-16.65
-22.87
-30.16
-38.85
-48.86
-59.5
-69.46
-76.94
-80.27
-78.4
-71.34
-60.29
-47.12
-33.72
-21.38
-10.49
-0.76
8.39
17.38
26.33
35.04
43.21
50.55
56.86
61.96
65.79
68.34
69.66
69.91
69.28
68.04
66.45
64.75
63.12
61.58
59.94
57.88
54.98
50.96
45.81
39.86
33.71
28.07
23.62
20.72
19.38
19.18
19.49
19.6
18.93
17.18
14.23
10.15
5.02
-1.13
-8.27
-16.46
-25.71
-36.02
-47.37
-59.55
-72.13
-84.27
-94.78
-102.31
-105.66
-104.16
-97.87
-87.61
-74.73
-60.71
-46.84
-33.86
-21.94
-10.75
0.24
11.44
22.91
34.31
45
54.26
61.56
66.66
69.58
70.58
70.03
68.4
66.17
63.84
61.83
60.44
59.78
59.69
59.79
59.56
58.46
56.14
52.55
48
42.97
38.01
33.47
29.47
25.88
22.42
18.73
14.43
9.14
2.68
-4.87
-13.07
-21.19
-28.47
-34.44
-39.16
-43.25
-47.74
-53.71
-61.94
-72.45
-84.35
-95.87
-104.72
-108.73
-106.57
-98.19
-84.88
-68.76
-52.02
-36.25
-22.14
-9.45
2.48
14.37
26.63
39.21
51.66
63.26
73.18
80.74
85.54
87.56
87.18
85.03
81.85
78.38
75.18
72.63
70.85
69.71
68.85
67.75
65.89
62.84
58.46
52.87
46.53
40.01
33.92
28.61
24.12
20.1
16.01
11.35
5.83
-0.54
-7.46
-14.53
-21.38
-27.75
-33.54
-38.76
-43.55
-48.17
-52.99
-58.45
-64.95
-72.6
-81.04
-89.38
-96.31
-100.4
-100.57
-96.38
-88.14
-76.77
-63.36
-48.85
-33.88
-18.81
-3.93
10.39
23.72
35.7
46.15
55.11
62.65
68.83
73.63
76.93
78.76
79.27
78.85
77.98
77.09
76.46
76.14
75.99
75.75
75.12
73.84
71.73
68.78
64.98
60.36
54.97
48.93
42.45
35.88
29.62
23.94
18.86
14.13
9.36
4.23
-1.32
-7.05
-12.57
-17.54
-21.85
-25.72
-29.54
-33.79
-38.82
-44.97
-52.42
-61.26
-71.27
-81.7
-91.28
-98.39
-101.49
-99.66
-92.86
-81.9
-68.16
-53.05
-37.67
-22.59
-8.03
5.97
19.33
31.76
42.91
52.31
59.61
64.65
67.5
68.54
68.26
67.17
65.67
64.02
62.34
60.76
59.4
58.39
57.83
57.56
57.26
56.46
54.69
51.62
47.17
41.52
35.05
28.29
21.74
15.82
10.7
6.26
2.14
-2.09
-6.7
-11.7
-16.78
-21.49
-25.55
-28.99
-32.19
-35.76
-40.31
-46.24
-53.65
-62.26
-71.41
-80.05
-86.98
-90.99
-91.21
-87.33
-79.64
-68.96
-56.29
-42.63
-28.72
-15.03
-1.88
10.5
21.83
31.75
39.94
46.15
50.36
52.82
54.04
54.6
54.98
55.45
56.02
56.52
56.76
56.59
55.89
54.62
52.68
50.02
46.68
42.84
38.81
34.97
31.61
28.86
26.54
24.28
21.59
18.05
13.39
7.6
0.84
-6.59
-14.38
-22.23
-29.87
-37.12
-43.87
-50.12
-56.02
-61.87
-68.08
-74.98
-82.59
-90.52
-97.82
-103.25
-105.57
-103.98
-98.32
-89.09
-77.21
-63.64
-49.13
-34.12
-18.88
-3.67
11.1
24.9
37.17
47.46
55.56
61.45
65.3
67.4
68.09
67.74
66.69
65.24
63.61
61.92
60.23
58.55
56.84
55.04
53.05
50.78
48.2
45.34
42.36
39.37
36.43
33.44
30.23
26.59
22.36
17.52
12.1
6.17
-0.18
-6.8
-13.53
-20.16
-26.53
-32.57
-38.38
-44.27
-50.69
-58.11
-66.83
-76.69
-86.91
-96.11
-102.58
-104.88
-102.24
-94.81
-83.56
-69.86
-54.98
-39.76
-24.66
-9.84
4.54
18.28
31.12
42.78
53.04
61.74
68.75
73.95
77.29
78.8
78.59
76.86
73.93
70.17
65.98
61.77
57.83
54.25
50.97
47.73
44.25
40.32
35.86
30.99
25.92
20.88
16.02
11.33
6.67
1.85
-3.25
-8.69
-14.36
-20.08
-25.66
-30.92
-35.83
-40.51
-45.26
-50.53
-56.78
-64.19
-72.47
-80.71
-87.55
-91.54
-91.61
-87.42
-79.42
-68.61
-56.09
-42.77
-29.12
-15.34
-1.49
12.22
25.42
37.51
47.88
56.03
61.67
64.87
65.93
65.33
63.53
60.95
57.91
54.67
51.51
48.68
46.35
44.45
42.69
40.64
37.91
34.36
30.12
25.57
21.13
17.07
13.43
10.01
6.46
2.48
-2.09
-7.26
-12.82
-18.51
-24.09
-29.42
-34.5
-39.49
-44.68
-50.45
-57.13
-64.78
-72.93
-80.62
-86.45
-89.05
-87.47
-81.53
-71.78
-59.3
-45.34
-30.94
-16.83
-3.42
9.06
20.46
30.67
39.5
46.76
52.22
55.75
57.38
57.36
56.12
54.16
51.91
49.65
47.53
45.56
43.75
42.09
40.54
38.96
37.08
34.65
31.46
27.48
22.89
17.98
13.09
8.42
3.99
-0.4
-5.03
-10.16
-15.87
-21.95
-28.03
-33.7
-38.72
-43.18
-47.5
-52.34
-58.35
-65.9
-74.77
-84.08
-92.36
-97.98
-99.58
-96.56
-89.26
-78.8
-66.59
-53.89
-41.43
-29.36
-17.49
-5.6
6.34
18.13
29.32
39.39
47.86
54.36
58.7
60.97
61.49
60.75
59.32
57.65
56.01
54.46
52.91
51.17
49.02
46.32
42.96
38.95
34.39
29.49
24.52
19.77
15.41
11.53
7.97
4.46
0.66
-3.7
-8.65
-14.04
-19.54
-24.8
-29.57
-33.75
-37.38
-40.63
-43.8
-47.34
-51.85
-57.96
-66.03
-75.84
-86.46
-96.3
-103.55
-106.65
-104.74
-97.84
-86.77
-72.67
-56.76
-39.97
-22.97
-6.19
9.93
24.93
38.28
49.54
58.43
64.95
69.3
71.84
72.89
72.73
71.59
69.65
67.19
64.51
61.96
59.78
58.1
56.88
55.87
54.67
52.83
49.95
45.78
40.31
33.81
26.74
19.6
12.77
6.45
0.6
-5
-10.59
-16.32
-22.13
-27.76
-32.85
-37.09
-40.36
-42.8
-44.81
-46.99
-49.96
-54.29
-60.39
-68.29
-77.51
-86.99
-95.25
-100.67
-102.05
-98.89
-91.47
-80.67
-67.61
-53.27
-38.38
-23.43
-8.81
5.09
17.91
29.34
39.17
47.26
53.52
57.87
60.32
61.08
60.55
59.26
57.67
56.1
54.64
53.24
51.82
50.4
49.07
47.9
46.85
45.74
44.27
42.18
39.36
35.87
31.92
27.78
23.69
19.79
16.15
12.72
9.42
6.1
2.5
-1.61
-6.45
-12.12
-18.48
-25.22
-31.92
-38.19
-43.83
-49.03
-54.28
-60.19
-67.19
-75.13
-83.11
-89.7
-93.28
-92.61
-87.34
-78
-65.82
-52.18
-38.18
-24.38
-10.92
2.2
14.87
26.76
37.37
46.2
52.92
57.45
59.99
60.92
60.78
60.1
59.35
58.78
58.46
58.26
58.07
57.81
57.52
57.26
57.01
56.64
55.94
54.68
52.72
50.06
46.79
43.03
38.91
34.54
30.05
25.51
20.94
16.3
11.47
6.29
0.72
-5.13
-11.03
-16.69
-21.88
-26.52
-30.7
-34.61
-38.61
-43.11
-48.51
-55.03
-62.52
-70.28
-77.11
-81.65
-82.79
-80.02
-73.64
-64.53
-53.86
-42.63
-31.54
-20.9
-10.79
-1.21
7.79
16.08
23.47
29.74
34.72
38.32
40.66
41.95
42.5
42.58
42.37
41.89
41.13
40.01
38.52
36.66
34.44
31.83
28.72
25
20.61
15.62
10.34
5.24
0.85
-2.46
-4.64
-5.98
-7.01
-8.32
-10.34
-13.25
-16.92
-21.12
-25.56
-30.04
-34.54
-39.13
-44
-49.46
-55.86
-63.46
-72.22
-81.61
-90.48
-97.29
-100.5
-99.05
-92.74
-82.22
-68.74
-53.66
-38.14
-22.94
-8.45
5.18
17.88
29.64
40.33
49.69
57.35
62.86
65.95
66.67
65.45
63
59.95
56.73
53.48
50.15
46.76
43.4
40.33
37.72
35.6
33.78
31.95
29.85
27.33
24.41
21.2
17.88
14.6
11.45
8.4
5.35
2.12
-1.42
-5.34
-9.6
-14.09
-18.67
-23.2
-27.63
-31.97
-36.32
-40.97
-46.28
-52.64
-60.25
-68.8
-77.42
-84.7
-89.11
-89.43
-85.17
-76.75
-65.32
-52.31
-38.94
-25.92
-13.44
-1.34
10.53
22.08
32.93
42.53
50.34
56.08
59.74
61.54
61.79
60.86
59.04
56.63
53.91
51.13
48.53
46.27
44.43
42.99
41.84
40.78
39.59
38.02
35.92
33.26
30.17
26.85
23.49
20.15
16.71
12.99
8.86
4.34
-0.33
-4.81
-8.76
-12.04
-14.75
-17.19
-19.68
-22.44
-25.52
-28.85
-32.37
-36.17
-40.37
-45.02
-49.9
-54.45
-57.97
-59.8
-59.57
-57.18
-52.72
-46.32
-38.16
-28.54
-18.09
-7.72
1.56
9.01
14.41
18.16
21.04
23.84
27.08
30.88
35.05
39.2
43
46.22
48.84
51.03
53
54.88
56.58
57.79
58.09
57.17
54.93
51.57
47.46
42.93
38.16
33.21
28.06
22.79
17.6
12.73
8.32
4.34
0.57
-3.26
-7.37
-11.79
-16.37
-20.85
-25.01
-28.73
-32.09
-35.38
-39.01
-43.45
-49.03
-55.74
-63.08
-70.01
-75.13
-77.05
-74.91
-68.68
-59.21
-47.85
-35.99
-24.5
-13.57
-2.85
8.1
19.45
30.86
41.57
50.59
57.1
60.64
61.26
59.38
55.73
51.06
46.05
41.19
36.88
33.46
31.23
30.4
30.89
32.29
33.84
34.72
34.26
32.18
28.63
23.97
18.65
12.94
6.95
0.63
-5.99
-12.78
-19.44
-25.56
-30.69
-34.55
-37.02
-38.27
-38.75
-39.1
-40.07
-42.27
-46.06
-51.29
-57.31
-63.04
-67.19
-68.72
-67.09
-62.48
-55.58
-47.39
-38.76
-30.19
-21.8
-13.52
-5.26
2.86
10.52
17.33
22.92
27.12
29.97
31.67
32.51
32.81
32.86
32.86
32.87
32.79
32.42
31.53
29.99
27.83
25.21
22.35
19.48
16.7
14.03
11.37
8.57
5.51
2.04
-1.92
-6.37
-11.2
-16.23
-21.17
-25.8
-29.99
-33.78
-37.34
-40.91
-44.76
-49.07
-54.01
-59.64
-65.87
-72.3
-78.2
-82.55
-84.23
-82.42
-76.84
-67.88
-56.45
-43.65
-30.46
-17.63
-5.6
5.37
15.15
23.69
31.14
37.83
44.11
50.28
56.34
61.99
66.7
69.87
71.02
69.97
66.9
62.3
56.85
51.34
46.47
42.78
40.59
39.87
40.2
40.81
40.68
38.9
34.96
29.02
21.9
14.77
8.68
4.2
1.21
-0.96
-3.11
-5.85
-9.35
-13.42
-17.74
-22.06
-26.38
-30.93
-36.07
-42.09
-49.12
-56.99
-65.12
-72.6
-78.3
-81.19
-80.62
-76.48
-69.16
-59.36
-47.84
-35.23
-22.04
-8.69
4.41
16.84
28.21
38.21
46.62
53.29
58.16
61.29
62.89
63.37
63.13
62.54
61.81
60.97
60.01
58.91
57.75
56.64
55.66
54.75
53.72
52.26
50.07
46.97
42.94
38.25
33.27
28.43
24
20.05
16.39
12.75
8.9
4.74
0.38
-3.96
-8.05
-11.76
-15.1
-18.26
-21.56
-25.34
-29.93
-35.53
-42.23
-49.89
-57.98
-65.57
-71.38
-74.14
-72.95
-67.72
-59.21
-48.78
-37.83
-27.34
-17.67
-8.65
0.03
8.56
16.79
24.36
30.87
36.01
39.62
41.7
42.4
42.03
40.97
39.62
38.29
37.13
36.2
35.53
35.14
34.99
34.96
34.71
33.79
31.85
28.73
24.63
20.04
15.53
11.51
8.09
5.02
1.86
-1.75
-5.95
-10.6
-15.33
-19.83
-23.94
-27.76
-31.57
-35.7
-40.48
-46.14
-52.84
-60.54
-68.79
-76.64
-82.69
-85.48
-83.99
-78.09
-68.65
-57.17
-45.2
-33.76
-23.16
-13.16
-3.35
6.41
15.91
24.61
32
37.72
41.74
44.22
45.48
45.81
45.45
44.55
43.28
41.75
40.12
38.55
37.18
36.1
35.28
34.49
33.4
31.67
29.08
25.63
21.56
17.26
13.15
9.49
6.31
3.41
0.43
-2.95
-6.96
-11.59
-16.64
-21.77
-26.66
-31.09
-35.09
-38.98
-43.24
-48.46
-55.07
-63.09
-71.95
-80.49
-87.14
-90.43
-89.4
-83.98
-74.96
-63.65
-51.37
-39.1
-27.27
-15.93
-4.96
5.7
15.96
25.64
34.47
42.12
48.3
52.73
55.35
56.32
56.04
54.98
53.55
51.97
50.35
48.74
47.23
45.92
44.81
43.75
42.41
40.42
37.59
33.95
29.78
25.45
21.34
17.64
14.28
11.02
7.52
3.5
-1.13
-6.24
-11.52
-16.64
-21.36
-25.62
-29.54
-33.4
-37.53
-42.34
-48.21
-55.45
-64.08
-73.53
-82.65
-89.82
-93.42
-92.46
-86.87
-77.55
-65.93
-53.44
-41.02
-29.03
-17.46
-6.22
4.65
14.93
24.43
33.02
40.61
47.05
52.1
55.47
57.08
57.14
56.18
54.8
53.49
52.46
51.63
50.85
49.95
48.85
47.49
45.77
43.58
40.8
37.45
33.69
29.75
25.86
22.14
18.59
15.1
11.49
7.59
3.27
-1.5
-6.63
-11.92
-17.17
-22.23
-27.04
-31.7
-36.33
-41.11
-46.19
-51.83
-58.33
-65.88
-74.29
-82.73
-89.8
-93.83
-93.49
-88.34
-79.03
-66.96
-53.77
-40.67
-28.23
-16.47
-5.14
5.89
16.51
26.46
35.44
43.18
49.48
54.22
57.31
58.81
58.9
57.95
56.43
54.79
53.34
52.26
51.55
51.11
50.71
50.1
49.03
47.32
44.93
41.94
38.49
34.75
30.85
26.89
22.92
18.95
14.98
10.97
6.83
2.48
-2.13
-7.02
-12.15
-17.45
-22.83
-28.17
-33.35
-38.29
-43.01
-47.73
-52.88
-58.97
-66.33
-74.8
-83.54
-91.12
-95.91
-96.61
-92.7
-84.59
-73.43
-60.63
-47.45
-34.69
-22.63
-11.25
-0.43
9.87
19.57
28.51
36.48
43.29
48.79
52.88
55.53
56.84
57.01
56.31
55.1
53.69
52.29
50.99
49.76
48.46
46.89
44.89
42.41
39.51
36.33
33.04
29.83
26.86
24.28
22.23
20.85
20.14
19.92
19.7
18.83
16.63
12.61
6.7
-0.79
-9.23
-17.96
-26.37
-34.13
-41.13
-47.5
-53.59
-59.84
-66.61
-74.05
-81.82
-89.02
-94.39
-96.67
-94.94
-89.08
-79.65
-67.75
-54.59
-41.15
-28.03
-15.48
-3.55
7.79
18.51
28.51
37.64
45.66
52.31
57.32
60.55
62.06
62.16
61.3
60
58.74
57.86
57.49
57.53
57.74
57.7
57.06
55.57
53.25
50.31
47.08
43.77
40.43
36.9
32.97
28.57
23.79
18.96
14.37
10.26
6.65
3.32
-0.04
-3.78
-8.08
-12.95
-18.2
-23.54
-28.66
-33.38
-37.67
-41.7
-45.88
-50.68
-56.6
-63.82
-71.88
-79.67
-85.52
-87.76
-85.28
-77.96
-66.74
-53.22
-39.08
-25.52
-13.17
-2.05
8.08
17.51
26.38
34.72
42.38
49.12
54.6
58.49
60.56
60.86
59.65
57.4
54.66
51.89
49.46
47.53
46.1
45.02
44.02
42.83
41.24
39.13
36.49
33.43
30.08
26.58
23.03
19.5
16
12.59
9.32
6.23
3.33
0.48
-2.56
-6.05
-10.12
-14.71
-19.56
-24.37
-28.89
-33.09
-37.09
-41.1
-45.39
-50.24
-55.96
-62.8
-70.68
-78.96
-86.39
-91.31
-92.24
-88.39
-80.04
-68.37
-55
-41.4
-28.57
-16.86
-6.16
3.83
13.36
22.61
31.46
39.67
46.78
52.34
55.97
57.58
57.37
55.82
53.53
51.1
48.99
47.46
46.53
46.06
45.71
45.12
43.96
42.03
39.36
36.11
32.56
29.01
25.62
22.43
19.29
16.04
12.56
8.9
5.23
1.74
-1.57
-4.86
-8.47
-12.68
-17.56
-22.87
-28.19
-33.12
-37.49
-41.47
-45.51
-50.16
-55.97
-63.18
-71.63
-80.6
-88.82
-94.73
-96.94
-94.6
-87.78
-77.38
-64.8
-51.42
-38.22
-25.61
-13.59
-2.01
9.13
19.66
29.26
37.61
44.52
49.97
54.03
56.83
58.44
58.93
58.39
57.04
55.19
53.29
51.7
50.58
49.86
49.22
48.29
46.78
44.61
41.94
39.03
36.06
33.03
29.82
26.27
22.32
18.12
13.94
10.03
6.51
3.25
-0.06
-3.73
-7.96
-12.77
-17.97
-23.26
-28.37
-33.13
-37.53
-41.74
-45.99
-50.66
-56.06
-62.44
-69.79
-77.75
-85.45
-91.63
-94.91
-94.22
-89.15
-80.17
-68.42
-55.33
-42.15
-29.57
-17.75
-6.53
4.31
14.74
24.52
33.34
40.87
46.91
51.4
54.34
55.82
56
55.11
53.48
51.47
49.45
47.72
46.44
45.6
44.99
44.24
42.96
40.86
37.9
34.26
30.28
26.3
22.52
18.94
15.49
12.01
8.41
4.66
0.85
-2.93
-6.54
-9.91
-13.06
-16.04
-18.94
-21.81
-24.62
-27.36
-30.04
-32.75
-35.72
-39.27
-43.75
-49.46
-56.49
-64.57
-72.92
-80.28
-85.2
-86.5
-83.6
-76.81
-67.06
-55.56
-43.35
-31.14
-19.32
-8.17
2.05
11.16
19.14
26.19
32.61
38.59
43.98
48.38
51.28
52.45
52.01
50.56
48.81
47.44
46.76
46.75
47.13
47.52
47.58
47.17
46.25
44.89
43.15
41.06
38.65
35.91
32.87
29.62
26.26
22.85
19.44
15.99
12.43
8.7
4.74
0.57
-3.68
-7.92
-12.02
-16.05
-20.1
-24.34
-28.93
-33.96
-39.43
-45.36
-51.85
-58.98
-66.67
-74.39
-81.18
-85.77
-87.02
-84.37
-78.02
-68.85
-57.95
-46.23
-34.17
-21.97
-9.69
2.41
13.94
24.45
33.65
41.43
47.81
52.81
56.41
58.6
59.49
59.36
58.6
57.57
56.55
55.67
54.92
54.22
53.44
52.39
50.87
48.74
45.95
42.64
39.09
35.65
32.57
29.95
27.66
25.5
23.21
20.68
17.88
14.88
11.71
8.32
4.65
0.59
-3.83
-8.54
-13.37
-18.24
-23.12
-28.1
-33.27
-38.72
-44.56
-50.93
-58.01
-65.88
-74.34
-82.7
-89.79
-94.2
-94.83
-91.21
-83.74
-73.48
-61.72
-49.54
-37.56
-25.96
-14.69
-3.75
6.74
16.51
25.23
32.69
38.76
43.44
46.8
48.97
50.03
50.06
49.11
47.31
44.81
41.86
38.72
35.6
32.64
29.91
27.45
25.24
23.31
21.65
20.25
18.98
17.68
16.1
14.02
11.31
8.07
4.65
1.45
-1.17
-3.22
-5.1
-7.51
-11.14
-16.34
-22.9
-30.2
-37.45
-44.07
-49.95
-55.38
-60.97
-67.28
-74.62
-82.79
-91.07
-98.2
-102.62
-102.86
-97.94
-87.76
-73.22
-56.04
-38.24
-21.67
-7.44
4.21
13.81
22.23
30.25
38.26
46.15
53.46
59.72
64.68
68.39
71.13
73.13
74.47
75.07
74.78
73.63
71.9
70.09
68.71
68.08
68.12
68.35
68.01
66.35
62.88
57.55
50.77
43.22
35.52
28.08
20.99
14.15
7.46
0.99
-5.09
-10.54
-15.29
-19.48
-23.44
-27.57
-32.18
-37.4
-43.2
-49.46
-56.15
-63.35
-71.2
-79.69
-88.38
-96.33
-102.24
-104.85
-103.37
-97.76
-88.71
-77.28
-64.51
-51.1
-37.41
-23.61
-9.88
3.49
16.13
27.66
37.8
46.31
53.06
57.98
61.13
62.77
63.27
63.08
62.51
61.76
60.85
59.72
58.36
56.82
55.23
53.68
52.15
50.52
48.61
46.19
43.17
39.56
35.49
31.23
27.05
23.18
19.64
16.27
12.72
8.64
3.81
-1.7
-7.54
-13.23
-18.37
-22.82
-26.7
-30.37
-34.25
-38.74
-44.1
-50.36
-57.17
-63.8
-69.12
-71.88
-71.09
-66.39
-58.17
-47.44
-35.46
-23.33
-11.72
-0.83
9.4
19.08
28.24
36.72
44.26
50.57
55.43
58.71
60.4
60.64
59.61
57.55
54.81
51.74
48.78
46.33
44.61
43.58
42.89
42.05
40.64
38.43
35.44
31.88
27.97
23.83
19.56
15.23
10.97
6.9
3.07
-0.56
-4.15
-7.79
-11.48
-15.06
-18.33
-21.19
-23.75
-26.33
-29.37
-33.36
-38.64
-45.25
-52.85
-60.65
-67.53
-72.25
-73.81
-71.74
-66.21
-57.9
-47.77
-36.72
-25.42
-14.25
-3.37
7.07
16.85
25.62
32.97
38.54
42.12
43.74
43.73
42.6
40.94
39.27
37.91
36.98
36.44
36.16
36.02
35.87
35.53
34.75
33.31
31.08
28.07
24.5
20.65
16.74
12.83
8.76
4.3
-0.72
-6.25
-12.03
-17.65
-22.78
-27.25
-31.15
-34.79
-38.56
-42.96
-48.48
-55.48
-63.98
-73.48
-82.84
-90.47
-94.8
-94.73
-90
-81.26
-69.69
-56.62
-43.13
-29.88
-17.14
-5.03
6.41
17.1
26.87
35.47
42.62
47.97
51.3
52.59
52.15
50.55
48.48
46.58
45.23
44.54
44.29
44.11
43.54
42.18
39.79
36.33
31.95
26.97
21.74
16.61
11.79
7.36
3.24
-0.72
-4.64
-8.53
-12.3
-15.77
-18.86
-21.65
-24.43
-27.73
-32.1
-38.05
-45.8
-55.08
-65.07
-74.44
-81.63
-85.17
-84.17
-78.49
-68.81
-56.3
-42.24
-27.64
-13.13
0.99
14.52
27.2
38.64
48.46
56.35
62.2
66.15
68.48
69.48
69.35
68.2
66.1
63.23
59.93
56.62
53.62
51.01
48.5
45.58
41.75
36.78
30.89
24.65
18.72
13.58
9.28
5.43
1.4
-3.38
-9.22
-15.98
-23.16
-30.12
-36.36
-41.81
-46.72
-51.67
-57.26
-63.89
-71.62
-79.98
-88.08
-94.69
-98.54
-98.6
-94.38
-86.07
-74.4
-60.5
-45.55
-30.49
-15.98
-2.41
10.05
21.26
31.13
39.6
46.59
52.04
55.85
57.91
58.22
56.95
54.45
51.31
48.14
45.47
43.53
42.27
41.34
40.27
38.63
36.17
32.88
28.94
24.67
20.4
16.32
12.46
8.65
4.61
0.09
-5.06
-10.78
-16.87
-23.02
-28.97
-34.6
-39.95
-45.31
-51.1
-57.8
-65.68
-74.61
-83.87
-92.18
-98
-100
-97.41
-90.29
-79.37
-65.75
-50.5
-34.48
-18.25
-2.29
12.96
27.02
39.42
49.83
58.08
64.16
68.19
70.35
70.94
70.28
68.78
66.83
64.71
62.63
60.65
58.78
56.94
55
52.76
50
46.5
42.18
37.16
31.75
26.33
21.19
16.44
11.9
7.26
2.15
-3.61
-9.97
-16.63
-23.2
-29.33
-34.92
-40.14
-45.35
-51.07
-57.71
-65.47
-74.17
-83.14
-91.32
-97.34
-99.95
-98.27
-92.13
-81.97
-68.77
-53.6
-37.42
-20.93
-4.66
10.96
25.45
38.31
49.1
57.54
63.55
67.3
69.08
69.36
68.58
67.17
65.42
63.53
61.58
59.65
57.8
56.06
54.41
52.68
50.61
47.89
44.33
39.89
34.77
29.31
23.85
18.65
13.77
9.13
4.54
-0.19
-5.23
-10.64
-16.37
-22.28
-28.19
-33.96
-39.57
-45.14
-50.93
-57.3
-64.53
-72.67
-81.41
-89.95
-97.14
-101.67
-102.4
-98.61
-90.27
-77.91
-62.52
-45.29
-27.36
-9.7
6.87
21.75
34.42
44.52
51.8
56.27
58.16
58
56.44
54.16
51.64
49.13
46.65
44.18
41.87
40.03
39.06
39.18
40.21
41.63
42.65
42.6
41.14
38.31
34.47
30.12
25.68
21.42
17.38
13.46
9.42
4.99
-0.03
-5.68
-11.81
-18.14
-24.33
-30.17
-35.59
-40.7
-45.7
-50.93
-56.77
-63.58
-71.53
-80.39
-89.36
-97.17
-102.32
-103.54
-100.05
-91.77
-79.16
-63.08
-44.66
-25.1
-5.73
12.15
27.47
39.58
48.5
54.89
59.9
64.8
70.56
77.49
85.19
92.67
98.65
102.05
102.27
99.29
93.57
85.8
76.73
67
57.16
47.69
38.96
31.26
24.75
19.53
15.6
12.98
11.56
11.11
11.16
11.14
10.43
8.5
5.02
-0.1
-6.74
-14.56
-23.07
-31.62
-39.51
-46.16
-51.27
-54.96
-57.76
-60.37
-63.35
-66.9
-70.64
-73.7
-74.97
-73.36
-68.19
-59.33
-47.29
-33.08
-17.97
-3.14
10.47
22.28
32.06
39.82
45.66
49.74
52.22
53.29
53.22
52.38
51.18
50.05
49.38
49.33
49.91
50.88
51.84
52.34
51.99
50.49
47.76
43.94
39.36
34.48
29.75
25.51
21.91
18.83
15.98
12.95
9.24
4.39
-1.92
-9.77
-18.93
-28.91
-39.04
-48.7
-57.48
-65.22
-72.04
-78.3
-84.42
-90.8
-97.58
-104.44
-110.54
-114.58
-115.23
-111.48
-102.98
-90.14
-74.02
-55.98
-37.41
-19.42
-2.8
11.99
24.78
35.55
44.35
51.19
56.09
59.09
60.43
60.49
59.79
58.78
57.76
56.73
55.53
53.96
51.95
49.61
47.24
45.14
43.52
42.29
41.05
39.23
36.27
31.84
26.01
19.22
12.11
5.28
-0.88
-6.2
-10.75
-14.64
-18.03
-21.08
-24
-27.02
-30.35
-34.07
-38.15
-42.43
-46.85
-51.51
-56.72
-62.85
-70.01
-77.82
-85.31
-91.1
-93.76
-92.3
-86.51
-76.93
-64.65
-50.9
-36.68
-22.67
-9.23
3.44
15.21
26.07
36.06
45.24
53.54
60.63
65.98
69.07
69.61
67.84
64.42
60.29
56.29
52.98
50.56
49.01
48.12
47.56
46.91
45.64
43.29
39.58
34.61
28.79
22.71
16.89
11.54
6.56
1.63
-3.62
-9.42
-15.69
-22.08
-28.02
-32.91
-36.3
-38.09
-38.59
-38.54
-38.93
-40.77
-44.79
-51.21
-59.58
-68.82
-77.43
-83.84
-86.79
-85.65
-80.59
-72.38
-62.08
-50.63
-38.61
-26.21
-13.43
-0.32
12.81
25.37
36.64
46.03
53.21
58.19
61.18
62.43
62.14
60.49
57.74
54.34
50.87
47.89
45.65
44.03
42.65
41.01
38.78
35.92
32.68
29.37
26.3
23.59
21.17
18.85
16.37
13.49
10.05
6.08
1.71
-2.8
-7.17
-11.19
-14.77
-17.91
-20.72
-23.44
-26.32
-29.64
-33.67
-38.51
-44.19
-50.62
-57.65
-64.97
-72.04
-78
-81.74
-82.15
-78.42
-70.44
-58.92
-45.2
-30.88
-17.36
-5.44
4.71
13.39
21.02
27.84
33.85
38.84
42.64
45.34
47.28
48.99
50.94
53.42
56.36
59.39
62
63.62
63.81
62.34
59.26
54.87
49.7
44.33
39.33
35.13
31.94
29.74
28.26
27.08
25.78
23.98
21.46
18.17
14.21
9.81
5.27
0.96
-2.83
-5.97
-8.67
-11.47
-15.2
-20.9
-29.48
-41.66
-57.6
-76.71
-97.45
-117.38
-133.57
-143.37
-145.19
-139.14
-126.9
-111.08
-94.22
-78.04
-63.15
-49.4
-36.56
-24.81
-14.75
-7.05
-1.93
1.2
3.59
6.62
11.26
17.62
24.94
32.02
37.7
41.43
43.45
44.64
46.16
48.88
52.97
57.86
62.29
64.85
64.49
60.97
54.91
47.63
40.6
34.95
31.08
28.64
26.81
24.66
21.6
17.53
12.77
7.87
3.27
-0.89
-4.87
-9.22
-14.5
-21.13
-29.13
-38.06
-47.07
-55.03
-60.85
-63.69
-63.1
-59.15
-52.26
-43.03
-32.09
-19.94
-7.07
6.03
18.73
30.27
39.94
47.27
52.19
55.03
56.33
56.72
56.63
56.23
55.51
54.35
52.72
50.77
48.76
46.99
45.64
44.64
43.7
42.33
40.11
36.81
32.5
27.58
22.65
18.26
14.74
12.09
10
8.01
5.74
3.02
-0.05
-3.19
-6.13
-8.78
-11.35
-14.23
-17.93
-22.87
-29.26
-37
-45.64
-54.44
-62.41
-68.54
-71.96
-72.16
-69.07
-63.01
-54.54
-44.29
-32.86
-20.76
-8.44
3.64
14.99
25.18
33.83
40.69
45.72
49.03
50.97
51.94
52.34
52.4
52.18
51.62
50.63
49.23
47.57
45.84
44.18
42.6
40.96
39.04
36.61
33.53
29.75
25.38
20.61
15.71
10.98
6.61
2.63
-1.05
-4.59
-8.21
-12.07
-16.3
-21.02
-26.26
-31.94
-37.89
-43.87
-49.68
-55.19
-60.29
-64.8
-68.31
-70.23
-69.99
-67.26
-62.09
-54.95
-46.52
-37.49
-28.35
-19.35
-10.7
-2.59
4.68
10.7
15.07
17.58
18.3
17.71
16.6
15.84
16.12
17.67
20.26
23.3
26.23
28.67
30.55
31.87
32.65
32.71
31.82
29.85
26.93
23.49
20.06
17.06
14.61
12.5
10.25
7.39
3.63
-0.97
-5.99
-10.86
-15.06
-18.32
-20.83
-23.11
-25.9
-29.83
-35.15
-41.57
-48.29
-54.16
-57.98
-58.82
-56.25
-50.44
-41.99
-31.79
-20.66
-9.36
1.58
11.7
20.59
27.96
33.68
37.76
40.41
41.91
42.55
42.62
42.38
42.05
41.83
41.87
42.24
42.93
43.83
44.77
45.52
45.76
45.18
43.51
40.65
36.74
32.16
27.38
22.84
18.7
14.88
11.05
6.85
2.03
-3.33
-8.91
-14.3
-19.19
-23.52
-27.57
-31.88
-37.02
-43.42
-51.12
-59.65
-68.03
-74.91
-78.94
-79.15
-75.26
-67.73
-57.6
-46.12
-34.36
-22.99
-12.26
-2.14
7.43
16.41
24.57
31.6
37.15
40.98
43.06
43.53
42.71
41.01
38.86
36.64
34.6
32.85
31.37
29.99
28.47
26.55
24.08
21.01
17.44
13.57
9.59
5.61
1.62
-2.47
-6.77
-11.38
-16.33
-21.54
-26.87
-32.13
-37.19
-42.08
-47.07
-52.66
-59.32
-67.32
-76.38
-85.53
-93.29
-97.98
-98.27
-93.62
-84.42
-71.83
-57.39
-42.52
-28.16
-14.69
-2.08
9.88
21.25
31.83
41.2
48.86
54.45
57.88
59.38
59.4
58.46
57.01
55.3
53.45
51.43
49.21
46.74
43.99
40.98
37.77
34.4
30.91
27.3
23.49
19.35
14.71
9.43
3.49
-2.95
-9.66
-16.38
-22.91
-29.2
-35.37
-41.65
-48.31
-55.58
-63.54
-72
-80.41
-87.79
-92.89
-94.47
-91.65
-84.2
-72.68
-58.29
-42.45
-26.46
-11.19
2.99
16.04
28.07
39.05
48.8
56.99
63.26
67.39
69.45
69.7
68.64
66.76
64.46
62.05
59.71
57.53
55.49
53.5
51.32
48.71
45.39
41.27
36.43
31.14
25.73
20.51
15.58
10.88
6.18
1.23
-4.15
-9.98
-16.08
-22.17
-27.99
-33.46
-38.72
-44.18
-50.34
-57.62
-66.09
-75.34
-84.36
-91.74
-95.93
-95.77
-90.8
-81.36
-68.55
-53.71
-38.14
-22.71
-7.88
6.22
19.5
31.76
42.64
51.7
58.57
63.09
65.34
65.65
64.5
62.45
59.98
57.51
55.3
53.45
51.9
50.49
48.95
46.99
44.41
41.1
37.12
32.65
27.97
23.32
18.87
14.6
10.28
5.62
0.37
-5.54
-11.96
-18.61
-25.13
-31.31
-37.11
-42.7
-48.41
-54.63
-61.62
-69.37
-77.42
-84.8
-90.19
-92.26
-90.06
-83.34
-72.58
-58.86
-43.47
-27.58
-12.07
2.54
15.95
27.94
38.27
46.7
53.08
57.4
59.82
60.72
60.49
59.51
58.09
56.42
54.63
52.82
51.06
49.37
47.69
45.88
43.74
41.1
37.89
34.17
30.1
25.91
21.85
18.04
14.44
10.86
6.99
2.59
-2.49
-8.23
-14.45
-20.9
-27.32
-33.54
-39.55
-45.52
-51.78
-58.7
-66.52
-75.07
-83.62
-90.91
-95.44
-95.92
-91.71
-83.04
-70.81
-56.33
-40.81
-25.18
-9.99
4.42
17.77
29.79
40.19
48.79
55.5
60.34
63.38
64.72
64.56
63.22
61.15
58.84
56.73
55.06
53.87
52.98
52.1
50.93
49.18
46.66
43.26
39.09
34.39
29.55
24.99
20.99
17.57
14.48
11.25
7.42
2.71
-2.82
-8.86
-14.95
-20.69
-25.91
-30.65
-35.19
-39.89
-45.12
-51.17
-58.09
-65.56
-72.84
-78.76
-82.03
-81.54
-76.76
-67.86
-55.75
-41.7
-26.98
-12.59
0.89
13.22
24.32
34.11
42.47
49.25
54.3
57.54
59.07
59.06
57.83
55.74
53.13
50.35
47.68
45.33
43.41
41.9
40.62
39.25
37.44
34.86
31.37
27.08
22.25
17.21
12.24
7.46
2.81
-1.85
-6.67
-11.73
-17
-22.37
-27.66
-32.72
-37.48
-42.02
-46.52
-51.3
-56.7
-63
-70.19
-77.84
-85.05
-90.49
-92.78
-90.89
-84.48
-74.01
-60.55
-45.36
-29.57
-13.99
0.92
14.79
27.29
38.06
46.77
53.25
57.52
59.81
60.44
59.82
58.39
56.51
54.49
52.47
50.55
48.71
46.97
45.33
43.75
42.05
39.97
37.2
33.55
29.09
24.08
18.93
13.99
9.4
5.07
0.77
-3.79
-8.77
-14.16
-19.78
-25.35
-30.58
-35.36
-39.74
-44.02
-48.61
-53.96
-60.36
-67.8
-75.81
-83.47
-89.51
-92.57
-91.63
-86.23
-76.69
-63.84
-48.84
-32.76
-16.47
-0.57
14.45
28.07
39.73
48.96
55.51
59.43
61.12
61.1
59.91
58.01
55.65
53.09
50.5
48.05
45.87
43.98
42.29
40.59
38.61
36.14
33.07
29.46
25.49
21.36
17.28
13.35
9.56
5.81
1.93
-2.26
-6.89
-11.98
-17.41
-22.98
-28.45
-33.65
-38.62
-43.58
-48.96
-55.15
-62.32
-70.16
-77.88
-84.3
-88.14
-88.41
-84.66
-77.03
-66.18
-52.98
-38.31
-22.93
-7.45
7.55
21.49
33.77
43.85
51.38
56.29
58.79
59.3
58.35
56.46
54.04
51.43
48.87
46.49
44.38
42.51
40.77
39.04
37.15
34.94
32.33
29.26
25.77
21.97
17.99
14
10.07
6.19
2.25
-1.86
-6.21
-10.81
-15.61
-20.55
-25.56
-30.55
-35.47
-40.28
-45.16
-50.39
-56.37
-63.25
-70.77
-78.05
-83.83
-86.76
-85.92
-81.02
-72.43
-60.94
-47.45
-32.74
-17.44
-2.1
12.7
26.3
37.99
47.2
53.63
57.3
58.57
58.06
56.42
54.24
51.94
49.78
47.9
46.36
45.16
44.17
43.17
41.87
40
37.37
33.96
29.92
25.49
20.97
16.58
12.53
8.84
5.38
1.89
-1.94
-6.33
-11.28
-16.53
-21.74
-26.65
-31.19
-35.56
-40.12
-45.26
-51.31
-58.38
-66.23
-74.22
-81.3
-86.17
-87.68
-85.08
-78.35
-68.1
-55.32
-41.11
-26.32
-11.54
2.8
16.3
28.49
38.92
47.18
53.11
56.76
58.4
58.38
57.14
55.06
52.56
49.98
47.67
45.86
44.65
43.96
43.53
43.04
42.19
40.83
38.97
36.73
34.27
31.71
29.05
26.16
22.8
18.63
13.3
6.56
-1.6
-10.95
-21.02
-31.31
-41.38
-50.95
-60.02
-68.69
-77.01
-84.85
-91.78
-97.1
-100.01
-99.86
-96.34
-89.57
-79.95
-68
-54.27
-39.2
-23.31
-7.32
7.86
21.24
31.92
39.46
43.88
45.62
45.39
43.94
41.88
39.63
37.4
35.24
33.18
31.22
29.42
27.83
26.46
25.13
23.57
21.43
18.48
14.73
10.42
5.94
1.66
-2.29
-6.02
-9.85
-14.06
-18.78
-23.82
-28.74
-33.09
-36.59
-39.33
-41.84
-44.81
-48.84
-54.14
-60.33
-66.56
-71.68
-74.53
-74.21
-70.16
-62.27
-50.83
-36.6
-20.61
-4.11
11.67
25.76
37.55
46.89
53.94
59.1
62.87
65.77
68.25
70.57
72.79
74.76
76.24
77.05
77.2
76.96
76.67
76.61
76.77
76.87
76.42
74.9
71.97
67.61
62.1
55.88
49.41
43.01
36.82
30.83
24.92
18.97
12.84
6.4
-0.42
-7.61
-15.08
-22.67
-30.32
-38.14
-46.41
-55.32
-64.72
-73.79
-81.14
-85.25
-85.02
-80.25
-71.76
-61.05
-49.69
-38.85
-29.07
-20.35
-12.51
-5.48
0.57
5.23
8.08
8.86
7.61
4.7
0.74
-3.51
-7.28
-9.92
-10.95
-10.2
-7.86
-4.44
-0.72
2.54
4.8
5.92
6.11
5.81
5.4
5.04
4.62
3.89
2.66
0.9
-1.23
-3.48
-5.66
-7.76
-10.03
-12.85
-16.67
-21.81
-28.34
-36.04
-44.44
-52.88
-60.53
-66.52
-69.99
-70.23
-66.96
-60.36
-51.07
-39.99
-27.98
-15.71
-3.54
8.26
19.4
29.46
37.97
44.57
49.1
51.64
52.47
51.98
50.59
48.79
47.03
45.65
44.81
44.38
44.05
43.44
42.26
40.42
37.92
34.82
31.2
27.12
22.75
18.37
14.27
10.59
7.27
3.99
0.42
-3.69
-8.35
-13.46
-18.88
-24.63
-30.83
-37.51
-44.49
-51.19
-56.72
-60.15
-60.73
-58.15
-52.54
-44.34
-34.09
-22.32
-9.49
3.87
17.11
29.41
39.88
47.83
52.93
55.35
55.71
54.81
53.42
52.01
50.72
49.42
47.85
45.82
43.26
40.23
36.84
33.24
29.55
25.89
22.41
19.26
16.47
13.94
11.36
8.38
4.7
0.28
-4.73
-10
-15.26
-20.32
-25.17
-29.85
-34.48
-39.25
-44.36
-50
-56.11
-62.26
-67.57
-70.9
-71.23
-68.01
-61.37
-51.99
-40.87
-28.99
-17.16
-5.99
4.07
12.7
19.75
25.36
29.88
33.78
37.46
41.05
44.29
46.66
47.64
46.94
44.68
41.43
37.9
34.72
32.1
29.89
27.68
25.13
22.15
18.97
15.96
13.36
11.17
9.09
6.72
3.77
0.09
-4.19
-8.86
-13.63
-18.29
-22.74
-26.95
-30.96
-34.93
-39.06
-43.56
-48.58
-54.06
-59.54
-64.21
-67.03
-67.03
-63.71
-57.17
-48.11
-37.5
-26.27
-15
-3.97
6.68
16.73
25.82
33.51
39.52
43.79
46.5
47.94
48.44
48.28
47.68
46.88
46.08
45.44
45.02
44.85
44.82
44.74
44.34
43.28
41.32
38.38
34.66
30.59
26.69
23.31
20.51
18.09
15.74
13.19
10.39
7.45
4.57
1.83
-0.82
-3.55
-6.62
-10.24
-14.54
-19.54
-25.06
-30.66
-35.6
-38.89
-39.6
-37.12
-31.46
-23.33
-13.87
-4.33
4.45
12.18
19.09
25.59
31.94
38.02
43.39
47.52
50.07
51.03
50.67
49.37
47.39
44.79
41.51
37.53
33.15
28.95
25.69
24.02
24.15
25.68
27.78
29.47
30.03
29.26
27.42
24.92
22.01
18.55
14.14
8.41
1.39
-6.44
-14.28
-21.36
-27.32
-32.27
-36.76
-41.41
-46.71
-52.89
-59.86
-67.28
-74.47
-80.46
-84.07
-84.16
-80.02
-71.72
-60.15
-46.74
-33.04
-20.21
-8.78
1.27
10.17
18.07
24.84
30.16
33.72
35.47
35.6
34.54
32.74
30.61
28.47
26.52
24.92
23.71
22.78
21.93
20.96
19.72
18.12
16.13
13.62
10.37
6.06
0.49
-6.33
-14.11
-22.31
-30.32
-37.61
-43.78
-48.64
-52.21
-54.72
-56.56
-58.29
-60.49
-63.63
-67.94
-73.21
-78.73
-83.36
-85.81
-85.07
-80.76
-73.27
-63.55
-52.73
-41.69
-30.83
-20.14
-9.55
0.92
11
20.29
28.47
35.39
41.05
45.53
48.91
51.24
52.54
52.79
51.99
50.16
47.46
44.21
40.81
37.61
34.67
31.77
28.42
24.23
19.13
13.44
7.75
2.57
-1.86
-5.7
-9.33
-13.19
-17.52
-22.3
-27.33
-32.34
-37.21
-42.09
-47.35
-53.36
-60.2
-67.37
-73.75
-77.88
-78.45
-74.74
-66.84
-55.62
-42.27
-28.03
-13.83
-0.26
12.33
23.71
33.71
42.1
48.73
53.55
56.66
58.31
58.83
58.55
57.65
56.18
54.19
51.86
49.62
48.04
47.59
48.31
49.69
50.72
50.22
47.34
41.83
34.15
25.22
16.04
7.32
-0.72
-8.2
-15.32
-22.14
-28.38
-33.62
-37.53
-40.17
-41.99
-43.76
-46.23
-49.94
-55.04
-61.23
-67.83
-73.84
-78.12
-79.65
-77.8
-72.51
-64.28
-54.02
-42.7
-31.04
-19.47
-8.13
2.96
13.71
23.94
33.3
41.38
47.74
52.03
54.07
54.05
52.41
49.77
46.76
43.88
41.39
39.41
37.9
36.81
35.99
35.2
34.17
32.61
30.34
27.35
23.77
19.83
15.66
11.3
6.59
1.35
-4.53
-10.97
-17.67
-24.16
-30.01
-34.98
-39.06
-42.51
-45.75
-49.18
-53.13
-57.72
-62.71
-67.49
-71.08
-72.34
-70.34
-64.75
-55.95
-44.96
-33.07
-21.4
-10.6
-0.75
8.38
17.12
25.6
33.68
40.98
46.96
51.17
53.37
53.7
52.64
50.87
49.13
47.87
47.31
47.33
47.71
48.11
48.26
47.78
46.35
43.68
39.7
34.63
29
23.51
18.78
15.15
12.5
10.32
7.88
4.45
-0.33
-6.39
-13.23
-20.14
-26.43
-31.75
-36.14
-39.99
-43.88
-48.27
-53.27
-58.51
-63.19
-66.21
-66.59
-63.79
-57.89
-49.62
-40.04
-30.13
-20.53
-11.39
-2.59
6.07
14.54
22.58
29.77
35.72
40.24
43.32
45.13
45.93
46.01
45.64
44.99
44.23
43.42
42.66
42.01
41.52
41.15
40.71
39.95
38.54
36.32
33.33
29.81
26.11
22.57
19.34
16.42
13.6
10.7
7.54
4.16
0.69
-2.65
-5.7
-8.5
-11.32
-14.57
-18.63
-23.72
-29.71
-36.14
-42.27
-47.22
-50.21
-50.63
-48.29
-43.35
-36.39
-28.17
-19.44
-10.72
-2.18
6.19
14.45
22.45
29.77
35.89
40.4
43.26
44.71
45.28
45.41
45.31
44.98
44.21
42.89
41.1
39.08
37.16
35.57
34.29
33.07
31.56
29.42
26.59
23.2
19.6
16.17
13.19
10.71
8.58
6.44
3.87
0.55
-3.57
-8.26
-12.98
-17.22
-20.69
-23.54
-26.23
-29.42
-33.59
-38.88
-45.04
-51.46
-57.29
-61.59
-63.49
-62.34
-57.98
-50.77
-41.54
-31.3
-20.94
-10.98
-1.57
7.31
15.6
23.07
29.32
33.92
36.65
37.56
37
35.52
33.66
31.85
30.27
28.87
27.42
25.62
23.25
20.24
16.74
13.04
9.57
6.73
4.84
4.02
4.1
4.6
4.86
4.2
2.14
-1.46
-6.41
-12.29
-18.64
-25.14
-31.68
-38.29
-45.1
-52.22
-59.74
-67.64
-75.83
-83.93
-91.28
-96.91
-99.81
-99.26
-95.1
-87.8
-78.25
-67.33
-55.68
-43.53
-30.9
-17.88
-4.83
7.55
18.45
27.25
33.68
37.9
40.31
41.45
41.77
41.53
40.86
39.85
38.63
37.41
36.37
35.62
35.06
34.48
33.64
32.52
31.27
30.21
29.55
29.22
28.76
27.49
24.74
20.17
13.97
6.74
-0.69
-7.59
-13.59
-18.83
-23.86
-29.4
-36.1
-44.28
-53.72
-63.68
-72.98
-80.25
-84.27
-84.26
-80.1
-72.33
-61.98
-50.24
-38.16
-26.45
-15.43
-5.1
4.71
14.21
23.46
32.33
40.45
47.26
52.25
55.13
55.95
55.11
53.18
50.71
48.13
45.64
43.31
41.14
39.06
36.95
34.59
31.76
28.33
24.41
20.31
16.48
13.28
10.8
8.8
6.8
4.35
1.2
-2.56
-6.59
-10.51
-14.16
-17.68
-21.48
-26.05
-31.79
-38.84
-46.98
-55.65
-63.93
-70.66
-74.66
-74.98
-71.26
-63.79
-53.54
-41.75
-29.59
-17.79
-6.62
3.93
13.96
23.4
32.01
39.49
45.59
50.24
53.51
55.53
56.39
56.15
54.89
52.83
50.39
48.12
46.56
46
46.32
47
47.3
46.56
44.45
41.16
37.24
33.36
30.02
27.37
25.17
22.99
20.4
17.16
13.3
9
4.55
0.13
-4.26
-8.81
-13.82
-19.63
-26.5
-34.5
-43.4
-52.44
-60.48
-66.09
-68.04
-65.74
-59.5
-50.42
-39.93
-29.2
-18.76
-8.55
1.78
12.32
22.73
32.26
40.12
45.86
49.47
51.32
51.91
51.61
50.61
49.01
46.89
44.49
42.12
40.09
38.56
37.47
36.51
35.28
33.43
30.8
27.54
23.99
20.51
17.35
14.48
11.65
8.48
4.69
0.2
-4.79
-9.85
-14.58
-18.7
-22.25
-25.54
-29.07
-33.31
-38.51
-44.56
-50.94
-56.84
-61.27
-63.35
-62.45
-58.39
-51.42
-42.19
-31.6
-20.56
-9.9
-0.18
8.25
15.2
20.57
24.33
26.48
27.14
26.55
25.04
23.01
20.85
18.9
17.34
16.23
15.46
14.81
14.03
12.88
11.23
9.11
6.65
4.05
1.49
-0.98
-3.43
-6.09
-9.18
-12.83
-17.02
-21.58
-26.24
-30.79
-35.18
-39.47
-43.89
-48.67
-54.08
-60.28
-67.24
-74.59
-81.48
-86.71
-88.99
-87.4
-81.7
-72.44
-60.71
-47.71
-34.45
-21.56
-9.33
2.11
12.7
22.36
31.03
38.65
45.17
50.43
54.23
56.34
56.69
55.45
53.1
50.2
47.35
44.87
42.83
40.99
39.03
36.64
33.68
30.15
26.14
21.79
17.33
12.97
8.9
5.12
1.5
-2.26
-6.46
-11.25
-16.5
-21.91
-27.16
-32.08
-36.79
-41.65
-47.08
-53.4
-60.62
-68.23
-75.25
-80.36
-82.24
-80.02
-73.55
-63.52
-51.1
-37.59
-23.96
-10.78
1.71
13.37
23.99
33.35
41.23
47.53
52.24
55.42
57.12
57.42
56.51
54.71
52.47
50.27
48.48
47.29
46.63
46.24
45.69
44.57
42.54
39.49
35.52
30.94
26.12
21.31
16.57
11.83
6.98
1.94
-3.2
-8.31
-13.29
-18.07
-22.71
-27.36
-32.22
-37.56
-43.63
-50.62
-58.41
-66.46
-73.71
-78.81
-80.52
-78.09
-71.52
-61.51
-49.22
-35.87
-22.46
-9.63
2.28
13.14
22.92
31.56
38.96
45
49.56
52.54
53.99
54.09
53.18
51.66
49.94
48.35
47.1
46.23
45.68
45.25
44.66
43.61
41.8
39.07
35.42
31.06
26.34
21.61
17.1
12.83
8.6
4.11
-0.91
-6.51
-12.52
-18.62
-24.39
-29.54
-34.06
-38.26
-42.75
-48.21
-55.04
-63.07
-71.39
-78.54
-82.91
-83.32
-79.36
-71.46
-60.67
-48.22
-35.18
-22.24
-9.75
2.15
13.37
23.72
32.92
40.61
46.49
50.42
52.4
52.63
51.44
49.24
46.52
43.79
41.54
40.16
39.75
40.1
40.7
40.88
40.08
38
34.68
30.44
25.78
21.18
17.01
13.42
10.29
7.29
3.98
-0.03
-4.91
-10.55
-16.59
-22.63
-28.39
-33.9
-39.5
-45.7
-52.93
-61.24
-70.13
-78.53
-85.06
-88.39
-87.62
-82.56
-73.71
-62.09
-48.79
-34.75
-20.55
-6.5
7.17
20.16
31.99
42.11
50.04
55.51
58.56
59.6
59.25
58.26
57.29
56.77
56.85
57.36
57.99
58.38
58.24
57.41
55.78
53.35
50.15
46.29
41.94
37.31
32.54
27.72
22.89
18.05
13.33
8.86
4.83
1.36
-1.64
-4.39
-7.23
-10.44
-14.17
-18.29
-22.56
-26.64
-30.3
-33.51
-36.43
-39.29
-42.29
-45.55
-49.07
-52.87
-56.91
-61.04
-64.87
-67.65
-68.46
-66.49
-61.37
-53.34
-43.21
-31.99
-20.58
-9.54
0.95
10.94
20.45
29.37
37.39
44.08
49
51.83
52.49
51.19
48.43
44.99
41.64
39.13
37.89
37.99
39.13
40.69
42.02
42.6
42.3
41.34
40.19
39.28
38.71
38.26
37.45
35.85
33.31
30.01
26.4
22.9
19.72
16.77
13.75
10.32
6.28
1.66
-3.4
-8.7
-14.1
-19.57
-25.17
-30.94
-36.97
-43.32
-50.06
-57.23
-64.69
-72
-78.3
-82.55
-83.7
-81.16
-74.96
-65.78
-54.7
-42.84
-31.01
-19.67
-8.92
1.25
10.82
19.6
27.27
33.5
38.08
41.07
42.73
43.51
43.82
43.93
43.94
43.84
43.64
43.41
43.19
42.99
42.65
41.88
40.41
38.11
35.06
31.47
27.55
23.43
19.12
14.51
9.56
4.24
-1.3
-6.89
-12.28
-17.24
-21.69
-25.67
-29.32
-32.81
-36.22
-39.49
-42.48
-45.17
-47.67
-50.4
-53.9
-58.63
-64.71
-71.67
-78.44
-83.59
-85.68
-83.72
-77.51
-67.63
-55.28
-41.82
-28.41
-15.74
-4.02
6.83
17
26.65
35.84
44.53
52.62
59.9
66.15
71.16
74.84
77.33
78.95
80.17
81.42
83
84.99
87.25
89.45
91.15
91.93
91.45
89.57
86.44
82.42
78.03
73.71
69.72
66.02
62.29
58.05
52.84
46.36
38.61
29.91
20.82
11.99
4.06
-2.6
-7.88
-12
-15.36
-18.53
-22.11
-26.66
-32.62
-40.05
-48.55
-57.03
-63.9
-67.45
-66.38
-60.4
-50.4
-38.19
-25.91
-15.35
-7.44
-2.23
0.77
2.18
2.39
1.55
-0.22
-2.67
-5.37
-7.81
-9.67
-10.91
-11.72
-12.33
-12.86
-13.28
-13.44
-13.29
-12.93
-12.67
-12.79
-13.52
-14.93
-16.95
-19.47
-22.39
-25.63
-29.08
-32.62
-36.04
-39.18
-41.99
-44.54
-47.05
-49.82
-53.13
-57.26
-62.36
-68.33
-74.76
-80.79
-85.19
-86.68
-84.28
-77.73
-67.57
-55.05
-41.61
-28.43
-16.12
-4.74
5.85
15.71
24.6
32.04
37.6
41.13
42.85
43.27
42.91
42.15
41.15
39.95
38.56
37.1
35.84
34.98
34.59
34.47
34.2
33.32
31.48
28.66
25.17
21.53
18.21
15.42
12.93
10.18
6.47
1.36
-5.18
-12.67
-20.28
-27.16
-32.74
-36.96
-40.31
-43.68
-48.09
-54.38
-62.83
-72.85
-82.95
-91.07
-95.09
-93.66
-86.63
-75.16
-61.28
-47.16
-34.4
-23.72
-14.98
-7.6
-0.99
5.24
11.17
16.68
21.63
25.94
29.54
32.42
34.61
36.17
37.2
37.94
38.7
39.81
41.49
43.7
46.13
48.22
49.36
49.07
47.22
44.02
39.92
35.4
30.71
25.85
20.61
14.77
8.29
1.4
-5.54
-12.18
-18.3
-23.89
-29.08
-34.1
-39.22
-44.78
-51.15
-58.56
-66.76
-74.9
-81.52
-85.02
-84.25
-78.96
-69.89
-58.36
-45.69
-32.76
-19.8
-6.7
6.65
19.98
32.58
43.5
51.84
57.05
59.08
58.38
55.75
52.1
48.27
44.84
42.12
40.17
38.88
38.04
37.42
36.69
35.53
33.66
30.91
27.31
23.09
18.62
14.4
10.8
7.95
5.59
3.19
0.06
-4.29
-9.9
-16.31
-22.76
-28.55
-33.36
-37.45
-41.52
-46.42
-52.75
-60.63
-69.47
-78.08
-84.93
-88.52
-87.86
-82.74
-73.72
-61.94
-48.63
-34.77
-20.94
-7.34
5.91
18.56
30.15
40.13
48.05
53.74
57.32
59.24
60.01
60.11
59.78
59.05
57.85
56.12
53.98
51.75
49.82
48.44
47.57
46.8
45.54
43.26
39.73
35.12
29.91
24.68
19.92
15.82
12.25
8.85
5.14
0.77
-4.4
-10.25
-16.4
-22.42
-27.95
-32.89
-37.46
-42.1
-47.38
-53.59
-60.62
-67.77
-73.81
-77.35
-77.27
-73.17
-65.56
-55.69
-45.16
-35.31
-26.8
-19.53
-12.8
-5.72
2.38
11.68
21.74
31.69
40.44
47.01
50.8
51.83
50.69
48.38
45.98
44.26
43.43
43.11
42.53
41
38.25
34.63
30.95
28.15
26.82
26.89
27.71
28.38
28.17
26.81
24.52
21.75
18.83
15.84
12.55
8.73
4.28
-0.54
-5.3
-9.5
-12.88
-15.6
-18.2
-21.49
-26.31
-33.28
-42.4
-52.93
-63.37
-71.72
-76.13
-75.33
-69.15
-58.46
-44.87
-30.12
-15.61
-2.16
9.99
20.85
30.46
38.71
45.39
50.31
53.38
54.66
54.31
52.64
50.15
47.44
45.16
43.85
43.76
44.73
46.41
48.25
49.75
50.5
50.09
48.16
44.47
39.01
32.18
24.75
17.58
11.28
6
1.34
-3.33
-8.53
-14.41
-20.74
-27.07
-33
-38.31
-43.04
-47.46
-51.96
-57.02
-63.05
-70.17
-78.06
-85.77
-91.95
-95.08
-93.95
-88.09
-77.91
-64.56
-49.57
-34.41
-20.09
-7.07
4.71
15.51
25.54
34.74
42.78
49.22
53.76
56.44
57.61
57.81
57.52
57.03
56.36
55.43
54.19
52.7
51.19
49.87
48.82
47.8
46.37
44
40.36
35.51
29.85
24.05
18.66
14.02
10.08
6.55
3.05
-0.74
-5.03
-9.89
-15.25
-20.95
-26.75
-32.39
-37.71
-42.76
-47.81
-53.36
-59.87
-67.52
-75.95
-84.15
-90.57
-93.63
-92.17
-85.92
-75.58
-62.54
-48.42
-34.47
-21.3
-8.96
2.79
14.16
25.06
35.14
43.84
50.68
55.39
57.97
58.77
58.28
57.04
55.48
53.87
52.33
50.86
49.52
48.35
47.32
46.3
45.01
43.1
40.35
36.77
32.7
28.63
25.06
22.25
20.09
18.08
15.56
11.96
7.04
1
-5.54
-11.85
-17.32
-21.67
-25.06
-27.96
-31.05
-34.98
-40.28
-47.12
-55.28
-63.94
-71.79
-77.28
-79.15
-76.79
-70.45
-61.08
-49.93
-37.99
-25.87
-13.77
-1.83
9.65
20.15
29.1
36.13
41.23
44.67
46.87
48.18
48.77
48.72
48.05
46.85
45.31
43.72
42.31
41.24
40.54
40.07
39.58
38.79
37.44
35.33
32.36
28.58
24.17
19.5
14.96
10.93
7.57
4.82
2.4
-0.13
-3.12
-6.78
-11.08
-15.81
-20.66
-25.35
-29.69
-33.69
-37.53
-41.57
-46.24
-51.88
-58.63
-66.25
-74
-80.77
-85.21
-86.16
-82.91
-75.46
-64.52
-51.26
-36.96
-22.7
-9.17
3.28
14.54
24.6
33.38
40.8
46.76
51.19
54.12
55.62
55.87
55.07
53.51
51.46
49.24
47.13
45.46
44.41
44.05
44.25
44.65
44.72
43.91
41.86
38.5
34.16
29.38
24.7
20.46
16.64
12.9
8.78
4.02
-1.37
-7.03
-12.5
-17.39
-21.54
-25.05
-28.16
-31.17
-34.34
-37.95
-42.31
-47.68
-54.08
-61
-67.43
-71.98
-73.32
-70.68
-64.09
-54.34
-42.62
-30.1
-17.56
-5.36
6.48
18.03
29.25
39.87
49.36
57.11
62.63
65.68
66.46
65.52
63.52
60.98
58.05
54.61
50.38
45.32
39.73
34.24
29.49
25.81
23.1
20.88
18.64
16.05
13.18
10.35
7.87
5.76
3.69
1.11
-2.39
-6.92
-12.09
-17.35
-22.18
-26.44
-30.32
-34.17
-38.29
-42.75
-47.47
-52.35
-57.34
-62.41
-67.29
-71.32
-73.43
-72.49
-67.74
-59.19
-47.63
-34.35
-20.67
-7.51
4.8
16.33
27.29
37.76
47.51
56.15
63.27
68.62
72.19
74.15
74.73
74.1
72.43
69.92
66.85
63.64
60.68
58.25
56.34
54.67
52.77
50.13
46.37
41.42
35.46
28.92
22.26
15.91
10.1
4.82
-0.14
-5.08
-10.27
-15.9
-21.97
-28.32
-34.67
-40.7
-46.19
-51.11
-55.65
-60.29
-65.67
-72.4
-80.88
-91.02
-102.05
-112.53
-120.57
-124.35
-122.68
-115.42
-103.53
-88.67
-72.69
-57
-42.32
-28.78
-16.16
-4.32
6.68
16.54
24.88
31.36
35.81
38.29
39.07
38.59
37.38
35.95
34.62
33.51
32.54
31.47
30.07
28.14
25.57
22.38
18.62
14.34
9.52
4.12
-1.88
-8.33
-15.03
-21.59
-27.62
-32.76
-36.76
-39.47
-40.81
-40.97
-40.48
-40.3
-41.58
-45.37
-52.08
-61.31
-71.85
-81.99
-90.03
-94.51
-94.61
-90.09
-81.37
-69.39
-55.42
-40.77
-26.41
-12.67
0.73
14.4
28.82
43.94
59
72.81
84
91.49
94.74
93.92
89.8
83.62
76.83
70.76
66.37
64.02
63.43
63.77
63.93
62.78
59.54
54
46.61
38.36
30.48
24.09
19.77
17.45
16.47
15.86
14.71
12.49
9.07
4.61
-0.56
-6.2
-12.15
-18.39
-25.04
-32.27
-40.33
-49.41
-59.54
-70.42
-81.36
-91.3
-99.03
-103.37
-103.46
-98.87
-89.72
-76.63
-60.64
-43.04
-25.1
-7.93
7.73
21.54
33.45
43.53
51.88
58.45
63.13
65.91
66.92
66.6
65.51
64.22
62.98
61.71
59.98
57.29
53.36
48.25
42.33
36.05
29.8
23.8
18.13
12.9
8.3
4.57
1.89
0.24
-0.66
-1.32
-2.26
-3.93
-6.52
-9.9
-13.69
-17.48
-20.95
-24.09
-27.22
-30.9
-35.72
-41.97
-49.43
-57.28
-64.28
-69.03
-70.36
-67.63
-60.8
-50.4
-37.24
-22.3
-6.46
9.45
24.71
38.77
51.17
61.68
70.21
76.76
81.38
84.16
85.28
85.04
83.88
82.21
80.34
78.39
76.32
74
71.37
68.47
65.4
62.24
59
55.58
51.9
47.86
43.48
38.81
33.88
28.68
23.16
17.22
10.81
3.97
-3.16
-10.28
-17.08
-23.27
-28.7
-33.42
-37.64
-41.67
-45.88
-50.63
-56.19
-62.74
-70.16
-77.92
-85.08
-90.34
-92.47
-90.64
-84.67
-75.12
-62.99
-49.39
-35.26
-21.2
-7.57
5.35
17.23
27.65
36.14
42.36
46.24
48.01
48.22
47.49
46.35
45.13
43.96
42.85
41.78
40.81
39.95
39.14
38.17
36.73
34.51
31.32
27.19
22.35
17.17
12.05
7.23
2.75
-1.56
-6.02
-10.9
-16.33
-22.21
-28.3
-34.3
-40.01
-45.38
-50.6
-55.97
-61.88
-68.68
-76.49
-84.95
-93.13
-99.59
-102.76
-101.43
-95.17
-84.46
-70.48
-54.68
-38.32
-22.3
-7.12
6.93
19.61
30.7
40.01
47.4
52.88
56.5
58.36
58.61
57.42
55.06
51.92
48.43
45.03
42.09
39.78
38.08
36.73
35.34
33.52
31
27.77
24.01
19.98
15.91
11.84
7.68
3.28
-1.51
-6.72
-12.29
-18.09
-24.01
-29.96
-35.84
-41.66
-47.48
-53.6
-60.4
-68.17
-76.81
-85.57
-93.04
-97.51
-97.54
-92.45
-82.53
-68.89
-53.03
-36.33
-19.8
-4.03
10.63
23.89
35.5
45.22
52.95
58.71
62.62
64.86
65.61
65.09
63.54
61.26
58.52
55.55
52.48
49.33
46.08
42.6
38.79
34.59
30.02
25.28
20.62
16.23
12.17
8.24
4.12
-0.46
-5.63
-11.3
-17.23
-23.22
-29.17
-35.12
-41.23
-47.71
-54.77
-62.63
-71.3
-80.42
-89.1
-95.94
-99.44
-98.37
-92.24
-81.44
-67.03
-50.39
-32.85
-15.43
1.14
16.36
29.84
41.25
50.35
57
61.24
63.24
63.35
62.06
59.92
57.47
55.08
52.97
51.13
49.41
47.61
45.58
43.2
40.36
37.01
33.13
28.76
24.05
19.17
14.31
9.48
4.57
-0.64
-6.34
-12.56
-19.09
-25.58
-31.74
-37.46
-42.93
-48.54
-54.79
-62.07
-70.4
-79.36
-87.97
-94.91
-98.73
-98.26
-92.93
-82.94
-69.16
-52.85
-35.31
-17.6
-0.47
15.54
30.05
42.69
53.1
61
66.28
69.05
69.61
68.41
65.99
62.87
59.48
56.14
53.13
50.58
48.54
46.89
45.35
43.47
40.85
37.2
32.56
27.24
21.75
16.5
11.71
7.26
2.79
-2.09
-7.69
-14.01
-20.74
-27.45
-33.68
-39.2
-44.09
-48.72
-53.68
-59.59
-66.84
-75.38
-84.54
-92.96
-98.94
-100.8
-97.47
-88.79
-75.62
-59.42
-41.78
-23.98
-6.75
9.55
24.69
38.27
49.78
58.64
64.52
67.4
67.63
65.81
62.66
58.87
55.02
51.47
48.41
45.75
43.19
40.34
36.8
32.4
27.29
22.02
17.33
13.83
11.77
10.79
10.07
8.58
5.55
0.7
-5.65
-12.84
-20.13
-26.99
-33.16
-38.57
-43.24
-47.15
-50.38
-53.16
-56
-59.54
-64.39
-70.73
-78.12
-85.48
-91.35
-94.26
-93.21
-87.9
-78.77
-66.77
-53.04
-38.56
-24.07
-9.94
3.66
16.69
29.13
40.85
51.63
61.07
68.72
74.23
77.47
78.7
78.46
77.3
75.63
73.46
70.54
66.55
61.35
55.16
48.48
41.9
35.83
30.48
25.83
21.82
18.47
15.98
14.54
14.28
14.97
16.07
16.86
16.63
14.93
11.68
7.15
1.86
-3.59
-8.66
-12.97
-16.46
-19.53
-23.04
-28.06
-35.49
-45.56
-57.44
-69.43
-79.3
-85.1
-85.67
-80.93
-71.68
-59.16
-44.6
-28.92
-12.8
3.2
18.42
32.03
43.21
51.36
56.27
58.25
57.99
56.34
53.98
51.35
48.58
45.69
42.73
39.86
37.27
35.13
33.5
32.28
31.34
30.49
29.63
28.63
27.43
25.94
24.17
22.11
19.74
17.01
13.74
9.83
5.22
0
-5.6
-11.31
-16.84
-21.97
-26.51
-30.41
-33.8
-36.98
-40.42
-44.59
-49.85
-56.32
-63.95
-72.52
-81.61
-90.52
-98.12
-103
-103.8
-99.67
-90.59
-77.44
-61.57
-44.37
-26.74
-9.07
8.55
25.93
42.56
57.54
69.89
78.87
84.32
86.66
86.81
85.82
84.57
83.51
82.69
81.84
80.65
78.84
76.37
73.26
69.57
65.36
60.72
55.8
50.84
46.11
41.83
38
34.49
30.95
27.02
22.4
16.98
10.82
4.17
-2.73
-9.66
-16.47
-23.1
-29.43
-35.31
-40.53
-45.06
-49.12
-53.31
-58.4
-65.04
-73.37
-82.64
-91.32
-97.39
-99.06
-95.28
-86.11
-72.61
-56.4
-39.11
-21.96
-5.64
9.53
23.25
35.07
44.44
50.87
54.24
54.95
53.8
51.76
49.6
47.69
46.01
44.3
42.34
40.1
37.7
35.31
32.93
30.37
27.32
23.56
19.12
14.35
9.8
5.97
3.13
1.25
0.02
-0.95
-2.07
-3.61
-5.78
-8.65
-12.19
-16.26
-20.59
-24.88
-28.89
-32.52
-35.97
-39.68
-44.17
-49.71
-56.08
-62.34
-67.08
-68.75
-66.26
-59.4
-48.85
-35.9
-21.97
-8.12
5.12
17.61
29.31
40.03
49.31
56.62
61.56
64.02
64.29
62.9
60.5
57.63
54.71
51.9
49.22
46.64
44.09
41.59
39.17
36.84
34.51
31.98
29
25.33
20.91
15.86
10.55
5.4
0.75
-3.4
-7.33
-11.51
-16.33
-21.82
-27.62
-33.05
-37.47
-40.56
-42.53
-44.04
-46.01
-49.19
-53.99
-60.32
-67.56
-74.69
-80.43
-83.48
-82.81
-78.01
-69.39
-57.92
-44.91
-31.52
-18.52
-6.2
5.41
16.27
26.14
34.59
41.15
45.53
47.78
48.3
47.61
46.24
44.55
42.7
40.7
38.55
36.33
34.22
32.38
30.88
29.54
28
25.86
22.98
19.54
16.04
13.1
11.08
9.9
8.92
7.21
3.92
-1.36
-8.36
-16.23
-23.85
-30.25
-34.99
-38.29
-40.85
-43.66
-47.59
-53.16
-60.42
-68.83
-77.2
-83.85
-86.97
-85.12
-77.86
-66.03
-51.64
-37.2
-24.87
-15.68
-9.39
-4.82
-0.55
4.44
10.4
16.95
23.35
28.93
33.3
36.39
38.31
39.2
39.14
38.14
36.22
33.62
30.83
28.49
27.23
27.34
28.59
30.24
31.34
31.12
29.27
26.07
22.13
18.04
14.1
10.15
5.74
0.44
-5.84
-12.76
-19.62
-25.68
-30.43
-33.87
-36.49
-39.04
-42.37
-47.06
-53.38
-61.08
-69.42
-77.16
-82.78
-84.79
-82.19
-74.71
-63.02
-48.43
-32.49
-16.52
-1.38
12.57
25.24
36.59
46.48
54.69
61.01
65.34
67.75
68.43
67.68
65.81
63.14
59.91
56.37
52.74
49.29
46.28
43.91
42.18
40.85
39.48
37.57
34.77
31.04
26.65
22
17.53
13.39
9.51
5.6
1.34
-3.49
-8.95
-14.9
-21.11
-27.35
-33.39
-39.1
-44.44
-49.48
-54.42
-59.56
-65.24
-71.63
-78.46
-84.84
-89.37
-90.5
-87.12
-78.95
-66.7
-51.84
-35.96
-20.34
-5.66
7.97
20.62
32.3
42.75
51.48
58
62.02
63.57
63.06
61.1
58.32
55.15
51.76
48.1
44.17
40.15
36.47
33.62
31.82
30.89
30.22
29.12
27.1
24.13
20.61
17.12
14.17
11.91
10.14
8.4
6.14
2.94
-1.39
-6.71
-12.61
-18.54
-24.04
-28.89
-33.17
-37.23
-41.56
-46.68
-53.01
-60.72
-69.57
-78.67
-86.64
-91.8
-92.73
-88.71
-80.03
-67.77
-53.49
-38.57
-23.95
-10.05
3.05
15.3
26.58
36.55
44.8
50.94
54.76
56.34
56.07
54.63
52.83
51.32
50.43
50.18
50.28
50.44
50.45
50.24
49.83
49.17
48.13
46.45
43.93
40.5
36.3
31.7
27.08
22.7
18.6
14.5
10
4.66
-1.69
-8.95
-16.71
-24.37
-31.31
-37.02
-41.19
-43.82
-45.27
-46.24
-47.65
-50.3
-54.5
-59.8
-65
-68.5
-68.84
-65.23
-57.83
-47.54
-35.61
-23.14
-10.83
1.03
12.3
22.8
32.18
40
45.92
49.82
51.8
52.11
51.06
49.01
46.29
43.27
40.3
37.65
35.47
33.77
32.48
31.43
30.38
29
26.96
24.02
20.19
15.7
11
6.58
2.71
-0.58
-3.51
-6.44
-9.63
-13.26
-17.26
-21.42
-25.38
-28.71
-31.13
-32.58
-33.36
-34.1
-35.6
-38.62
-43.58
-50.32
-58.03
-65.35
-70.66
-72.52
-70.08
-63.32
-53.03
-40.53
-27.2
-14.08
-1.71
9.79
20.46
30.25
38.92
46.11
51.5
54.98
56.67
56.94
56.22
54.95
53.48
51.96
50.42
48.82
47.13
45.41
43.75
42.22
40.85
39.55
38.15
36.5
34.55
32.31
29.9
27.35
24.66
21.7
18.32
14.34
9.68
4.39
-1.31
-7.13
-12.77
-17.99
-22.71
-27.02
-31.14
-35.34
-39.85
-44.85
-50.44
-56.53
-62.83
-68.7
-73.21
-75.38
-74.42
-70.05
-62.61
-52.93
-42.01
-30.77
-19.75
-9.17
0.94
10.55
19.5
27.49
34.12
39.04
42.07
43.26
42.95
41.67
39.98
38.35
37.03
36.04
35.24
34.47
33.67
32.85
32.01
31.1
29.89
28.11
25.55
22.24
18.51
14.96
12.13
10.29
9.34
8.78
8.04
6.68
4.57
1.86
-1.23
-4.5
-7.98
-11.79
-16.05
-20.8
-26.05
-31.83
-38.19
-45.18
-52.6
-59.82
-65.86
-69.53
-69.9
-66.58
-59.89
-50.69
-39.99
-28.57
-16.89
-5.11
6.6
17.84
27.97
36.29
42.32
45.99
47.66
47.98
47.68
47.32
47.22
47.46
47.94
48.46
48.89
49.23
49.57
50.11
50.94
51.91
52.64
52.6
51.35
48.7
44.74
39.75
34.04
27.82
21.21
14.33
7.34
0.45
-6.16
-12.45
-18.49
-24.36
-30.13
-35.71
-40.99
-45.94
-50.75
-55.76
-61.29
-67.38
-73.59
-78.98
-82.35
-82.6
-79.14
-72.07
-62.19
-50.74
-39.01
-27.97
-18.14
-9.62
-2.26
4.11
9.61
14.23
17.97
20.85
22.89
24.11
24.55
24.26
23.44
22.38
21.49
21.12
21.43
22.3
23.33
24.02
23.86
22.59
20.25
17.19
13.92
10.96
8.59
6.81
5.34
3.75
1.65
-1.17
-4.7
-8.78
-13.18
-17.78
-22.58
-27.71
-33.38
-39.82
-47.17
-55.36
-64
-72.31
-79.17
-83.28
-83.51
-79.18
-70.37
-57.91
-43.15
-27.58
-12.44
1.52
14.05
25.18
35.11
43.95
51.75
58.48
64.05
68.39
71.43
73.16
73.68
73.26
72.3
71.24
70.47
70.23
70.52
71.13
71.73
71.9
71.25
69.51
66.51
62.33
57.19
51.46
45.59
39.94
34.71
29.82
24.89
19.37
12.68
4.55
-4.88
-14.95
-24.77
-33.46
-40.54
-46.05
-50.54
-54.86
-59.89
-66.27
-74.17
-83.13
-92.04
-99.35
-103.46
-103.19
-98.21
-89.04
-76.88
-63.05
-48.6
-34.1
-19.73
-5.56
8.21
21.15
32.7
42.29
49.59
54.53
57.35
58.42
58.18
57.01
55.22
53.04
50.73
48.55
46.73
45.39
44.48
43.7
42.62
40.78
37.79
33.55
28.29
22.48
16.74
11.55
7.01
2.82
-1.54
-6.58
-12.44
-18.77
-24.92
-30.23
-34.42
-37.7
-40.73
-44.43
-49.62
-56.78
-65.89
-76.3
-86.71
-95.43
-100.66
-101.05
-96.17
-86.64
-73.99
-60.07
-46.47
-34.02
-22.78
-12.2
-1.63
9.33
20.53
31.38
41
48.47
53.12
54.71
53.49
50.12
45.52
40.58
35.94
31.86
28.28
25.03
21.93
18.97
16.18
13.54
10.9
7.96
4.46
0.24
-4.63
-9.95
-15.46
-20.99
-26.45
-31.81
-37.1
-42.36
-47.73
-53.43
-59.71
-66.75
-74.56
-82.84
-91.1
-98.68
-104.83
-108.81
-109.91
-107.54
-101.3
-91.11
-77.27
-60.45
-41.58
-21.76
-2.08
16.51
33.24
47.52
58.94
67.29
72.56
75.02
75.28
74.18
72.7
71.63
71.4
71.91
72.72
73.15
72.59
70.73
67.51
63.1
57.79
51.92
45.81
39.76
33.93
28.3
22.68
16.7
10.03
2.5
-5.78
-14.39
-22.75
-30.3
-36.74
-42.14
-46.97
-52.01
-58.04
-65.56
-74.42
-83.74
-91.95
-97.26
-98.15
-93.92
-84.73
-71.56
-55.65
-38.11
-19.73
-1.04
17.53
35.3
51.39
64.87
75.03
81.57
84.76
85.24
83.89
81.57
78.98
76.53
74.32
72.25
70.09
67.67
64.91
61.85
58.57
55.11
51.44
47.45
43
38.03
32.54
26.56
20.17
13.41
6.34
-0.95
-8.24
-15.22
-21.54
-26.88
-31.09
-34.31
-36.93
-39.52
-42.68
-46.84
-52.19
-58.71
-66.1
-73.89
-81.39
-87.66
-91.64
-92.31
-88.92
-81.19
-69.4
-54.22
-36.62
-17.56
1.95
20.94
38.39
53.32
64.94
72.8
77.05
78.34
77.65
76.04
74.35
73
72
71.13
70.09
68.69
66.91
64.84
62.67
60.51
58.35
56
53.12
49.4
44.65
38.96
32.64
26.09
19.62
13.31
6.98
0.43
-6.43
-13.39
-20.05
-26.03
-31.16
-35.7
-40.15
-45.16
-51.25
-58.61
-67.03
-75.87
-84.18
-90.85
-94.81
-95.27
-91.86
-84.66
-74.12
-60.86
-45.5
-28.69
-11.09
6.5
23.19
38.07
50.44
59.92
66.49
70.44
72.18
72.21
70.97
68.93
66.47
63.93
61.52
59.27
57.07
54.74
52.03
48.75
44.77
40.06
34.67
28.75
22.52
16.28
10.37
5.13
0.79
-2.58
-5.17
-7.37
-9.68
-12.56
-16.26
-20.85
-26.15
-31.89
-37.81
-43.72
-49.58
-55.56
-61.92
-68.91
-76.54
-84.35
-91.35
-96.24
-97.7
-94.87
-87.52
-76.09
-61.44
-44.56
-26.43
-7.86
10.33
27.36
42.44
54.89
64.28
70.48
73.7
74.36
73.11
70.6
67.47
64.25
61.29
58.8
56.79
55.23
53.96
52.81
51.56
50.03
48.07
45.57
42.5
38.88
34.88
30.75
26.85
23.55
21.06
19.36
18.1
16.78
14.78
11.67
7.28
1.88
-4.01
-9.77
-14.92
-19.35
-23.34
-27.56
-32.78
-39.66
-48.49
-59.01
-70.33
-81.04
-89.48
-94.08
-93.79
-88.38
-78.47
-65.36
-50.61
-35.62
-21.36
-8.35
3.29
13.55
22.4
29.61
34.9
37.99
38.79
37.58
34.97
31.78
28.84
26.65
25.29
24.54
24.04
23.53
22.95
22.33
21.64
20.68
19.12
16.76
13.58
9.86
6.04
2.46
-0.77
-3.85
-7.13
-10.89
-15.23
-19.98
-24.83
-29.44
-33.6
-37.29
-40.7
-44.23
-48.32
-53.38
-59.64
-67.01
-74.98
-82.62
-88.71
-91.93
-91.24
-86.09
-76.63
-63.56
-47.95
-30.95
-13.57
3.33
19.07
33.11
44.97
54.37
61.21
65.61
67.86
68.32
67.38
65.42
62.78
59.77
56.74
54.08
52.28
51.72
52.61
54.74
57.46
59.82
60.78
59.58
55.97
50.25
43.17
35.69
28.67
22.7
17.93
14.08
10.55
6.57
1.46
-5.18
-13.23
-22.12
-30.89
-38.46
-43.98
-47.1
-48.19
-48.3
-48.89
-51.36
-56.49
-64.09
-73.02
-81.53
-87.91
-90.96
-90.26
-86.02
-78.81
-69.25
-57.81
-44.96
-31.2
-17.16
-3.58
8.84
19.49
28.02
34.27
38.34
40.57
41.48
41.62
41.46
41.26
41.14
41.16
41.41
42.08
43.23
44.74
46.14
46.87
46.4
44.63
41.91
38.91
36.39
34.82
34.25
34.33
34.48
34.07
32.69
30.18
26.67
22.6
18.43
14.57
11.11
7.76
3.94
-1.05
-7.78
-16.46
-26.73
-37.66
-47.84
-55.66
-59.71
-59.16
-54.03
-45.15
-33.84
-21.46
-9.04
2.87
14.06
24.38
33.47
40.77
45.67
47.8
47.2
44.31
39.91
34.84
29.89
25.61
22.24
19.7
17.65
15.61
13.02
9.48
4.78
-1.02
-7.58
-14.45
-21.05
-26.84
-31.37
-34.38
-35.86
-36.1
-35.62
-35.03
-34.92
-35.65
-37.31
-39.66
-42.26
-44.55
-46.2
-47.19
-47.97
-49.26
-51.73
-55.54
-60.11
-64.16
-66.09
-64.56
-58.92
-49.48
-37.28
-23.72
-10.18
2.32
13.2
22.28
29.58
35.24
39.35
41.93
42.97
42.41
40.31
36.8
32.2
26.96
21.61
16.7
12.62
9.6
7.53
6.1
4.89
3.58
1.98
0.12
-1.86
-3.87
-5.87
-8
-10.43
-13.28
-16.64
-20.48
-24.76
-29.4
-34.32
-39.42
-44.62
-49.94
-55.52
-61.63
-68.36
-75.48
-82.17
-87.16
-89.09
-86.94
-80.48
-70.23
-57.29
-42.81
-27.75
-12.68
1.99
15.92
28.68
39.81
49.05
56.29
61.72
65.46
67.58
67.95
66.41
62.92
57.8
51.69
45.49
40.03
35.86
33.11
31.49
30.46
29.46
28.02
25.83
22.81
19.02
14.57
9.59
4.16
-1.65
-7.76
-14.01
-20.17
-25.96
-31.16
-35.74
-39.88
-43.96
-48.42
-53.56
-59.41
-65.54
-71.11
-74.93
-75.87
-73.11
-66.44
-56.4
-44.03
-30.59
-17.17
-4.44
7.39
18.36
28.59
38.05
46.48
53.56
58.92
62.41
64.11
64.34
63.59
62.35
60.97
59.64
58.42
57.31
56.37
55.61
54.97
54.22
53.07
51.24
48.68
45.52
42.11
38.73
35.52
32.41
29.26
25.93
22.44
18.91
15.46
12.05
8.53
4.71
0.48
-4.1
-8.8
-13.37
-17.62
-21.57
-25.39
-29.38
-33.82
-39.01
-45.13
-52.14
-59.62
-66.61
-71.7
-73.34
-70.43
-62.73
-51.08
-37.13
-22.73
-9.31
2.49
12.75
21.96
30.54
38.57
45.8
51.78
56.1
58.5
58.93
57.6
54.85
51.18
47.04
42.84
38.86
35.21
31.91
28.89
25.98
22.94
19.43
15.16
10.01
4.17
-1.86
-7.39
-11.83
-14.93
-16.92
-18.41
-20.09
-22.42
-25.46
-28.85
-32.07
-34.71
-36.66
-38.22
-39.91
-42.36
-46.1
-51.45
-58.43
-66.64
-75.2
-82.75
-87.69
-88.59
-84.62
-75.91
-63.57
-49.3
-34.84
-21.4
-9.49
1.09
10.79
19.98
28.66
36.48
42.93
47.5
49.93
50.18
48.5
45.27
40.97
36.13
31.24
26.74
23.01
20.25
18.44
17.36
16.58
15.55
13.81
11.16
7.73
4
0.53
-2.27
-4.36
-6.07
-7.98
-10.6
-14.21
-18.67
-23.57
-28.39
-32.76
-36.6
-40.15
-43.94
-48.63
-54.86
-62.97
-72.67
-82.94
-92.03
-97.95
-98.99
-94.39
-84.48
-70.6
-54.5
-37.78
-21.46
-5.99
8.53
22.03
34.28
44.91
53.6
60.1
64.38
66.54
66.81
65.49
63.05
59.99
56.87
54.1
51.98
50.6
49.91
49.74
49.83
49.8
49.19
47.59
44.81
40.88
36.2
31.27
26.62
22.55
19.11
16.09
13.12
9.8
5.92
1.57
-2.88
-6.9
-10.09
-12.39
-14.19
-16.22
-19.26
-23.87
-30.23
-38.09
-46.72
-54.99
-61.44
-64.56
-63.22
-57.05
-46.72
-33.67
-19.65
-6.1
6.21
17.12
26.79
35.34
42.67
48.59
53
55.97
57.8
58.82
59.32
59.4
59.12
58.38
57.14
55.41
53.37
51.35
49.68
48.5
47.66
46.63
44.78
41.57
36.93
31.22
25.15
19.45
14.57
10.57
7.11
3.67
-0.26
-5
-10.55
-16.67
-22.98
-29.15
-34.99
-40.53
-45.99
-51.68
-58
-65.3
-73.7
-82.85
-91.81
-99.09
-103.09
-102.6
-97.27
-87.75
-75.36
-61.58
-47.47
-33.51
-19.72
-6.01
7.43
20.05
31.07
39.78
45.82
49.26
50.57
50.44
49.47
48.07
46.4
44.52
42.52
40.62
39.11
38.21
37.91
37.85
37.51
36.35
34.06
30.66
26.46
21.91
17.38
12.96
8.46
3.51
-2.27
-9.02
-16.56
-24.37
-31.82
-38.35
-43.73
-48.09
-51.92
-55.88
-60.68
-66.85
-74.61
-83.57
-92.66
-100.23
-104.38
-103.64
-97.43
-86.36
-71.94
-56.05
-40.27
-25.52
-12.01
0.44
12.04
22.84
32.68
41.32
48.53
54.21
58.32
60.93
62.17
62.16
61.1
59.19
56.68
53.9
51.22
48.96
47.22
45.87
44.45
42.4
39.19
34.6
28.8
22.37
16.08
10.61
6.32
3.05
0.26
-2.78
-6.63
-11.5
-17.17
-23.13
-28.84
-33.91
-38.23
-41.95
-45.37
-48.94
-53.17
-58.56
-65.34
-73.2
-81.1
-87.4
-90.3
-88.48
-81.58
-70.28
-56.07
-40.62
-25.27
-10.76
2.68
15.09
26.45
36.64
45.46
52.75
58.47
62.65
65.35
66.65
66.62
65.39
63.18
60.25
56.96
53.63
50.57
47.98
45.94
44.32
42.79
40.92
38.24
34.51
29.81
24.51
19.17
14.32
10.24
6.87
3.88
0.77
-2.89
-7.34
-12.51
-18.1
-23.61
-28.59
-32.77
-36.25
-39.44
-42.97
-47.47
-53.37
-60.65
-68.76
-76.6
-82.68
-85.47
-83.83
-77.42
-66.83
-53.35
-38.58
-23.86
-9.96
2.91
14.87
26.06
36.4
45.63
53.36
59.32
63.39
65.64
66.36
65.97
64.89
63.5
62.04
60.6
59.23
57.96
56.82
55.82
54.87
53.72
52.07
49.67
46.4
42.39
37.94
33.46
29.28
25.57
22.32
19.24
15.92
11.98
7.26
1.84
-3.94
-9.61
-14.84
-19.56
-23.95
-28.35
-33.13
-38.61
-45.01
-52.45
-60.79
-69.48
-77.39
-82.99
-84.71
-81.51
-73.33
-61.21
-46.86
-32.07
-18.1
-5.37
6.29
17.27
27.7
37.29
45.41
51.46
55.13
56.55
56.25
54.86
52.93
50.79
48.53
46.16
43.72
41.35
39.29
37.72
36.62
35.77
34.67
32.83
29.94
26.01
21.42
16.7
12.39
8.69
5.5
2.37
-1.19
-5.54
-10.73
-16.46
-22.22
-27.55
-32.21
-36.27
-40.1
-44.2
-49.05
-55.02
-62.31
-70.78
-79.88
-88.46
-94.95
-97.66
-95.39
-87.92
-76.16
-61.84
-46.85
-32.59
-19.65
-7.86
3.21
13.81
23.76
32.5
39.44
44.2
46.75
47.45
46.78
45.22
43.18
40.87
38.41
35.9
33.45
31.22
29.33
27.75
26.3
24.61
22.29
19.06
14.94
10.25
5.45
1.01
-2.88
-6.36
-9.81
-13.67
-18.15
-23.17
-28.39
-33.41
-37.98
-42.07
-45.92
-49.95
-54.62
-60.39
-67.6
-76.23
-85.69
-94.67
-101.35
-103.89
-101.04
-92.63
-79.65
-63.83
-47.05
-30.73
-15.5
-1.43
11.76
24.26
36.03
46.75
56
63.45
68.91
72.4
74.09
74.24
73.15
71.1
68.37
65.27
62.15
59.32
56.99
55.19
53.73
52.2
50.06
46.87
42.34
36.6
30.06
23.36
17.14
11.8
7.34
3.46
-0.36
-4.63
-9.64
-15.39
-21.61
-27.86
-33.71
-38.93
-43.57
-47.99
-52.8
-58.66
-66
-74.69
-83.87
-91.98
-97.14
-97.65
-92.54
-81.87
-66.68
-48.7
-29.8
-11.58
4.89
19.2
31.35
41.62
50.28
57.47
63.16
67.19
69.41
69.89
68.88
66.85
64.26
61.41
58.4
55.27
52.07
49.06
46.61
45.04
44.41
44.38
44.29
43.44
41.31
37.84
33.42
28.7
24.33
20.66
17.65
14.88
11.72
7.6
2.18
-4.5
-12.06
-19.91
-27.41
-34.14
-39.96
-45.1
-50.07
-55.54
-62.08
-69.88
-78.45
-86.63
-92.85
-95.54
-93.74
-87.38
-77.28
-64.79
-51.24
-37.6
-24.33
-11.59
0.53
11.82
21.94
30.52
37.28
42.11
45.08
46.46
46.68
46.27
45.82
45.74
46.21
47.21
48.49
49.83
51.04
52.03
52.69
52.8
52.12
50.38
47.49
43.55
38.8
33.53
27.88
21.81
15.19
7.89
-0.04
-8.37
-16.72
-24.68
-31.95
-38.46
-44.38
-50.08
-56.1
-62.95
-70.97
-80.12
-89.86
-99.07
-106.35
-110.31
-109.94
-104.98
-95.85
-83.52
-69.17
-53.83
-38.23
-22.82
-7.91
6.15
18.95
30.05
39.09
45.88
50.44
52.97
53.79
53.29
51.93
50.14
48.3
46.63
45.28
44.27
43.59
43.19
42.96
42.68
42.06
40.74
38.52
35.36
31.37
26.76
21.66
16.07
9.95
3.36
-3.44
-9.94
-15.53
-19.69
-22.22
-23.37
-23.84
-24.6
-26.66
-30.77
-37.27
-45.82
-55.42
-64.54
-71.41
-74.5
-73
-66.97
-57.29
-45.22
-31.84
-17.77
-3.14
12.08
27.67
42.94
56.9
68.61
77.53
83.73
87.71
90.12
91.44
91.93
91.62
90.54
88.82
86.65
84.25
81.7
78.9
75.54
71.36
66.16
59.97
53.07
45.89
38.87
32.32
26.32
20.7
15.13
9.25
2.88
-3.89
-10.7
-16.98
-22.27
-26.36
-29.42
-31.98
-34.76
-38.46
-43.56
-50.15
-57.92
-66.11
-73.56
-78.91
-80.85
-78.52
-71.8
-61.41
-48.8
-35.74
-23.85
-14.13
-6.9
-1.86
1.59
4.01
5.79
7.03
7.78
8.03
7.81
7.15
6.01
4.32
2.19
-0.01
-1.6
-1.83
-0.31
2.79
6.58
9.85
11.52
11.05
8.6
4.73
0.16
-4.62
-9.43
-14.34
-19.43
-24.61
-29.65
-34.11
-37.61
-39.84
-40.79
-40.76
-40.4
-40.58
-42.21
-46
-52.23
-60.51
-69.7
-78.06
-83.6
-84.57
-80.01
-70.11
-56.16
-40.15
-24.15
-9.73
2.41
12.43
21
28.89
36.67
44.44
52
58.94
64.93
69.8
73.62
76.57
78.9
80.82
82.49
84.02
85.39
86.48
87.05
86.74
85.22
82.3
78.04
72.75
66.86
60.79
54.79
48.91
42.98
36.71
29.91
22.5
14.64
6.66
-0.98
-7.92
-13.95
-19.19
-24.04
-29.12
-35.06
-42.36
-51.19
-61.34
-72.12
-82.4
-90.67
-95.33
-95.14
-89.64
-79.45
-66.09
-51.5
-37.34
-24.43
-12.67
-1.38
10.04
21.58
32.46
41.44
47.33
49.55
48.33
44.6
39.67
34.83
31.07
28.94
28.58
29.81
32.24
35.32
38.39
40.76
41.85
41.27
39
35.34
30.86
26.17
21.75
17.74
13.91
9.87
5.24
-0.09
-5.91
-11.77
-17.27
-22.25
-26.94
-31.9
-37.8
-45.25
-54.51
-65.29
-76.64
-86.94
-94.15
-96.4
-92.58
-82.81
-68.62
-52.34
-36.44
-22.58
-11.26
-1.86
6.76
15.56
24.82
34.08
42.4
48.86
52.98
54.8
54.84
53.77
52.23
50.67
49.32
48.28
47.58
47.15
46.71
45.77
43.75
40.11
34.68
27.76
20.11
12.63
6.01
0.35
-4.85
-10.46
-17.29
-25.49
-34.42
-42.78
-49.26
-53.09
-54.5
-54.66
-55.16
-57.46
-62.39
-69.95
-79.32
-89.11
-97.54
-102.69
-102.92
-97.31
-85.99
-70.16
-51.75
-32.82
-14.93
1.06
14.93
26.76
36.57
44.32
49.93
53.5
55.37
56.13
56.5
57.21
58.89
61.95
66.47
72.09
78.08
83.51
87.53
89.55
89.37
87.13
83.22
78.11
72.24
65.92
59.32
52.48
45.38
38.02
30.46
22.74
14.9
7.04
-0.65
-7.81
-14.06
-19.23
-23.57
-27.85
-33.24
-40.81
-50.97
-63.04
-75.27
-85.2
-90.45
-89.51
-82.19
-69.61
-53.79
-37.04
-21.28
-7.73
3.15
11.53
17.76
22.27
25.36
27.21
27.98
27.85
27.09
26.02
25.02
24.32
23.98
23.75
23.28
22.2
20.41
18.09
15.59
13.27
11.25
9.39
7.39
4.93
1.86
-1.81
-5.94
-10.4
-15.13
-20.1
-25.25
-30.45
-35.48
-40.15
-44.36
-48.17
-51.93
-56.14
-61.34
-67.8
-75.24
-82.58
-88.21
-90.36
-87.8
-80.26
-68.58
-54.23
-38.83
-23.58
-9.12
4.41
16.97
28.48
38.69
47.32
54.14
59.04
62
63.02
62.21
59.83
56.31
52.2
48.08
44.37
41.29
38.74
36.4
33.84
30.58
26.32
20.95
14.71
8.09
1.69
-4.01
-8.9
-13.29
-17.81
-23.12
-29.5
-36.74
-44.24
-51.35
-57.82
-64.03
-70.94
-79.49
-89.99
-101.65
-112.62
-120.45
-123.03
-119.31
-109.52
-94.98
-77.39
-58.19
-38.07
-16.96
5.86
31.41
60.57
93.62
129.58
165.95
198.79
223.49
236.1
234.54
219.38
193.67
162.02
129.07
98.22
70.86
46.5
23.71
1.2
-21.22
-42.44
-60.5
-73.69
-81.35
-84.38
-84.67
-84.12
-83.66
-82.94
-80.8
-76.36
-69.95
-63.42
-59.49
-60.53
-67.38
-78.75
-91.53
-101.79
-106.09
-102.6
-91.5
-74.82
-55.68
-37.23
-21.86
-10.61
-3.21
1.52
4.97
8.19
11.54
14.77
17.34
18.77
18.86
17.76
15.88
13.8
12.22
11.92
13.63
17.95
25
34.3
44.69
54.53
62.09
66
65.73
61.63
54.9
47.04
39.38
32.58
26.55
20.61
13.97
6.16
-2.73
-12.1
-21.12
-29.14
-35.97
-42.02
-48.19
-55.58
-65.05
-76.76
-89.84
-102.46
-112.25
-116.94
-115.17
-106.88
-93.21
-75.96
-56.89
-37.26
-17.77
1.08
18.59
33.83
45.83
54.13
59.18
62.29
65.23
69.6
76.19
84.9
94.89
105.09
114.66
123.09
130.04
135.08
137.56
136.64
131.69
122.6
110.02
95.14
79.34
63.72
48.89
35
21.97
9.71
-1.75
-12.3
-21.93
-30.74
-38.9
-46.51
-53.55
-59.93
-65.72
-71.26
-77.16
-83.9
-91.49
-99.15
-105.39
-108.49
-107.09
-100.7
-89.77
-75.48
-59.23
-42.32
-25.68
-9.92
4.54
17.48
28.86
38.86
47.8
56
63.59
70.4
76.01
79.87
81.53
80.8
77.91
73.5
68.49
63.79
60.07
57.51
55.76
54.17
51.98
48.63
43.86
37.78
30.69
23.06
15.37
8.02
1.29
-4.73
-10.11
-14.98
-19.53
-23.86
-27.98
-31.83
-35.37
-38.64
-41.89
-45.56
-50.22
-56.33
-63.9
-72.18
-79.71
-84.63
-85.41
-81.3
-72.73
-60.97
-47.57
-33.8
-20.31
-7.29
5.3
17.33
28.45
38.15
46.03
51.93
55.95
58.33
59.34
59.21
58.11
56.17
53.6
50.59
47.4
44.31
41.57
39.33
37.53
35.83
33.74
30.7
26.44
21.06
15.1
9.34
4.43
0.61
-2.36
-5.12
-8.32
-12.38
-17.24
-22.46
-27.54
-32.08
-36.08
-39.85
-43.9
-48.76
-54.81
-62.23
-70.78
-79.7
-87.73
-93.26
-94.81
-91.46
-83.29
-71.25
-56.84
-41.55
-26.42
-11.93
1.8
14.74
26.68
37.28
46.17
53.11
58.09
61.26
62.88
63.24
62.6
61.2
59.18
56.71
53.94
51.1
48.43
46.16
44.33
42.8
41.2
39.14
36.27
32.48
27.89
22.8
17.61
12.61
7.99
3.68
-0.52
-4.89
-9.68
-14.94
-20.54
-26.24
-31.77
-36.99
-41.91
-46.64
-51.38
-56.35
-61.86
-68.18
-75.44
-83.26
-90.66
-96.16
-98.21
-95.79
-88.84
-78.26
-65.53
-52.06
-38.74
-25.89
-13.4
-1.21
10.45
21.09
30.1
37.02
41.73
44.48
45.78
46.27
46.59
47.27
48.77
51.45
55.51
60.93
67.37
74.18
80.56
85.75
89.17
90.5
89.64
86.57
81.31
73.99
64.91
54.6
43.66
32.65
21.81
11.17
0.58
-10.04
-20.47
-30.26
-38.87
-45.93
-51.37
-55.53
-58.94
-62.22
-65.79
-69.9
-74.55
-79.43
-83.93
-87.08
-87.7
-84.71
-77.55
-66.49
-52.66
-37.67
-23.04
-9.67
2.3
13.31
23.96
34.58
45.04
54.8
63.2
69.75
74.26
76.91
78.09
78.32
78.05
77.56
77
76.42
75.91
75.66
75.95
77.03
78.94
81.36
83.72
85.35
85.91
85.49
84.71
84.44
85.37
87.76
91.36
95.49
99.51
102.98
105.83
108.21
110.33
112.29
114.17
116.11
118.33
120.91
123.28
123.83
119.83
107.97
85.45
51.19
6.68
-44.09
-95.58
-142.24
-180.13
-207.72
-225.79
-236.48
-242.17
-244.67
-245.13
-244.55
-244.04
-244.51
-245.9
-246.62
-244.1
-236.31
-223.79
-210.34
-201.53
-201.68
-211.2
-226.2
-240.9
-251.1
-256.45
-259.93
-264.89
-271.94
-277.9
-277.64
-267.46
-247.69
-222.65
-198.18
-178.4
-163.82
-151.72
-138.23
-120.77
-98.98
-74.17
-48.25
-22.71
1.3
22.42
38.7
47.94
48.85
42.29
31.55
21.46
16.62
19.5
29.74
44.64
60.69
75.18
87.27
97.96
109.47
124.57
146.06
176.53
217.83
270.34
331.97
397.67
459.74
509.33
538.75
543.69
524.99
488.9
445.75
407.17
382.61
376.42
386.41
404.94
421.99
429.14
422.55
403.69
377.6
349.73
323.29
298.31
272.96
245.41
215.38
184.16
153.39
123.83
94.81
64.81
32.62
-1.62
-36.33
-69.23
-98.61
-124.38
-148.3
-173.3
-202.05
-235.27
-270.8
-303.66
-327.53
-336.96
-329.39
-306.17
-271.93
-232.81
-194.31
-159.75
-129.98
-104.2
-81.05
-59.57
-39.48
-20.93
-4.2
10.39
22.42
31.2
35.81
35.4
29.52
18.36
2.79
-15.9
-36.31
-57.23
-77.7
-97.01
-114.49
-129.36
-140.68
-147.54
-149.5
-146.89
-140.96
-133.64
-126.89
-122.01
-119.31
-118.08
-117.09
-115.24
-111.89
-107.04
-101.14
-94.73
-88.36
-82.51
-77.62
-74.13
-72.33
-72.18
-73.15
-74.17
-74.09
-71.91
-67.36
-60.91
-53.62
-46.73
-41.16
-37.28
-34.86
-33.34
-32.12
-30.79
-29.21
-27.43
-25.64
-24.17
-23.39
-23.75
-25.69
-29.52
-35.28
-42.77
-51.52
-60.85
-69.93
-77.65
-82.6
-83.1
-77.54
-65.02
-45.95
-22.31
2.78
25.93
44.72
58.43
67.94
74.84
80.29
84.18
85.1
81.14
71.01
54.85
34.37
12.13
-9.48
-29.11
-46.62
-62.7
-78.07
-92.75
-105.91
-116.09
-121.9
-122.43
-117.49
-107.37
-92.47
-73.29
-50.45
-25.08
1.21
26.44
48.8
67.14
80.98
90.4
95.68
97.02
94.62
88.95
80.99
72.18
64.11
57.98
54.3
52.9
53.1
54.13
55.45
56.8
58.07
59.1
59.48
58.64
56
51.29
44.78
37.23
29.65
22.88
17.18
12.2
7.15
1.26
-5.87
-14.16
-23.21
-32.53
-41.88
-51.22
-60.7
-70.39
-80.31
-90.37
-100.36
-109.68
-117.14
-120.88
-118.8
-109.3
-92.17
-68.94
-42.56
-16.39
7
26.48
42.39
55.76
67.37
77.22
84.55
88.46
88.57
85.39
80.16
74.32
68.96
64.53
60.89
57.69
54.68
51.91
49.59
47.85
46.51
45.05
42.84
39.45
34.89
29.66
24.49
19.99
16.35
13.22
9.9
5.69
0.27
-6.07
-12.52
-18.1
-22.09
-24.5
-26.04
-28.06
-32.04
-39.16
-49.73
-62.92
-76.61
-87.82
-93.44
-91.27
-80.83
-63.61
-42.58
-21.16
-2.11
13.25
24.93
33.86
41.07
47.16
52.14
55.69
57.49
57.5
55.96
53.33
50.06
46.45
42.64
38.73
34.92
31.52
28.94
27.36
26.57
25.93
24.51
21.56
16.8
10.61
3.86
-2.58
-8.19
-13.1
-17.91
-23.4
-30.01
-37.62
-45.49
-52.68
-58.4
-62.37
-64.98
-67.13
-69.95
-74.57
-81.68
-91.23
-101.93
-111.25
-115.81
-112.57
-99.99
-78.93
-52.54
-25.1
-0.44
19.33
34.11
45.19
54.07
61.6
67.8
72.25
74.62
75.09
74.17
72.44
70.25
67.59
64.32
60.35
55.83
51.22
47.14
44.13
42.38
41.55
40.81
39.11
35.66
30.22
23.34
16.1
9.66
4.72
1.23
-1.63
-5
-9.8
-16.31
-24
-31.83
-38.68
-43.92
-47.59
-50.37
-53.31
-57.5
-63.79
-72.55
-83.36
-94.65
-103.78
-107.5
-103.01
-89.2
-67.28
-40.59
-13.42
10.51
29.28
42.92
52.77
60.37
66.61
71.53
74.69
75.74
74.82
72.53
69.6
66.56
63.55
60.38
56.77
52.63
48.22
44.04
40.66
38.34
36.88
35.62
33.66
30.3
25.32
19.08
12.44
6.34
1.48
-2.02
-4.6
-7.17
-10.64
-15.57
-21.89
-28.92
-35.68
-41.33
-45.51
-48.49
-51.05
-54.25
-59.07
-66.2
-75.8
-87.19
-98.61
-107.37
-110.4
-105.34
-91.46
-70.23
-44.83
-19
4.26
23.53
38.89
51.24
61.41
69.65
75.76
79.44
80.73
80.06
78.03
75.11
71.47
67.11
62.02
56.45
50.89
45.99
42.27
39.91
38.57
37.45
35.5
31.8
25.95
18.25
9.62
1.3
-5.69
-10.87
-14.46
-17.15
-19.75
-22.72
-25.99
-29.01
-31.17
-32.15
-32.15
-31.87
-32.2
-33.86
-37.17
-41.99
-47.79
-53.73
-58.56
-60.67
-58.22
-49.62
-34.04
-11.86
15.38
45.37
75.84
105.13
132.37
157.28
179.71
199.41
216.04
229.63
240.97
251.56
262.86
275.24
287.21
295.48
296.23
286.91
267.95
243.09
218.35
199.92
191.98
195.37
207.64
224.15
239.66
249.83
252.1
246.1
233.39
216.77
199.27
183.15
169.39
157.73
147.25
137.05
126.71
116.22
105.71
95.03
83.83
71.67
58.33
43.84
28.33
11.82
-5.89
-25.15
-46.17
-68.88
-92.81
-117.36
-141.94
-166.24
-190.3
-214.58
-239.86
-266.75
-295.17
-323.71
-349.64
-369.49
-380.42
-381.54
-374.57
-363.34
-352.34
-345.09
-343.09
-345.87
-352
-360.12
-369.46
-379.64
-390.15
-399.95
-407.72
-412.3
-413.28
-411.09
-406.9
-402.16
-398.09
-395.27
-393.35
-391.09
-386.72
-378.72
-366.58
-351.05
-333.7
-315.77
-297.21
-276.38
-250.95
-219.5
-182.7
-143.54
-106.24
-74.84
-51.82
-37.69
-31.21
-30.1
-31.6
-32.94
-31.77
-26.44
-16.3
-1.55
17.04
38.55
62.22
87.18
112.42
136.47
157.9
175.91
190.87
204.54
219.7
239.55
266.75
302.23
344.05
386.98
423.15
444.07
443.37
419.17
374.95
318.39
258.81
204.3
159.84
126.92
104.56
90.55
82.48
78.11
75.4
72.46
67.78
60.56
50.88
39.6
28.15
17.93
9.9
4.19
0.09
-3.68
-8.47
-15.15
-23.92
-34.2
-44.95
-55
-63.31
-69.15
-72.06
-71.75
-68.03
-60.84
-50.22
-36.43
-20.04
-1.97
16.57
34.33
50.17
63.37
73.64
81.2
86.5
90.07
92.34
93.51
93.61
92.47
90.04
86.42
82
77.38
73.12
69.45
66.18
62.86
59.06
54.72
50.29
46.48
43.92
42.71
42.3
41.57
39.25
34.4
26.74
16.68
5.11
-7.04
-19.14
-31
-42.74
-54.54
-66.34
-77.85
-88.61
-98.16
-106.09
-111.87
-114.89
-114.55
-110.67
-103.65
-94.53
-84.5
-74.33
-64.1
-53.2
-40.88
-26.75
-11.25
4.41
18.76
30.75
40.09
47.34
53.52
59.6
66.18
73.26
80.36
86.82
92.16
96.39
99.97
103.61
107.9
113
118.55
123.77
127.69
129.33
127.9
122.91
114.21
102.01
86.86
69.74
52.02
35.25
20.87
9.89
2.69
-1.04
-2.1
-1.57
-0.51
0.2
0.01
-1.37
-3.97
-7.65
-12.24
-17.53
-23.27
-29.19
-34.99
-40.51
-45.74
-50.83
-55.92
-60.85
-64.96
-67.11
-66.06
-60.99
-51.88
-39.66
-25.94
-12.43
-0.45
9.42
17.25
23.62
29.2
34.49
39.7
44.71
49.09
52.25
53.61
52.83
49.97
45.69
41.13
37.74
36.78
38.96
44.07
50.96
57.88
62.96
64.83
62.95
57.61
49.71
40.32
30.41
20.67
11.64
3.77
-2.5
-6.88
-9.32
-10.22
-10.38
-10.84
-12.58
-16.17
-21.67
-28.52
-35.93
-43.07
-49.37
-54.7
-59.3
-63.65
-68.26
-73.58
-79.86
-87.05
-94.57
-101.23
-105.24
-104.73
-98.34
-85.94
-68.85
-49.43
-30.29
-13.38
0.48
11.52
20.5
28.11
34.59
39.76
43.39
45.38
45.93
45.49
44.46
43.21
41.83
40.34
38.66
36.79
34.82
32.88
31.08
29.43
27.82
26.04
23.93
21.45
18.68
15.72
12.58
9.13
5.18
0.62
-4.47
-9.77
-14.88
-19.44
-23.32
-26.62
-29.65
-32.85
-36.65
-41.37
-47
-53.02
-58.32
-61.35
-60.63
-55.34
-45.71
-33.05
-19.19
-5.9
5.73
15.41
23.4
30.04
35.42
39.33
41.49
41.89
40.87
39.13
37.33
35.88
34.71
33.47
31.72
29.27
26.28
23.2
20.5
18.42
16.79
15.08
12.65
9.01
4.03
-2.01
-8.56
-14.92
-20.58
-25.26
-29.11
-32.6
-36.46
-41.45
-48.04
-56.19
-65.04
-73.03
-78.17
-78.66
-73.6
-63.33
-49.42
-34
-19.09
-5.92
5.24
14.78
23.26
31.01
37.95
43.77
48.13
50.85
51.99
51.73
50.36
48.16
45.46
42.49
39.44
36.39
33.4
30.48
27.64
24.85
21.98
18.78
14.97
10.28
4.58
-2.02
-9.24
-16.67
-23.9
-30.62
-36.76
-42.42
-47.8
-53.09
-58.31
-63.33
-67.91
-71.75
-74.43
-75.27
-73.35
-67.64
-57.48
-42.94
-24.97
-5.11
15.06
34.45
52.76
70.15
86.92
103.05
118.25
132.15
144.69
156.19
167.21
178.13
188.87
198.88
207.43
214.02
218.8
222.37
225.28
227.21
226.68
221.58
210.09
191.52
166.4
135.72
100.04
59.29
13.45
-36.11
-85.97
-131.28
-167.52
-192.5
-207.25
-215.12
-219.88
-223.9
-227.58
-230.1
-230.78
-229.71
-227.24
-222.91
-214.48
-198.17
-170.25
-129.48
-78.73
-25.01
22.51
55.64
70.1
66.8
51.24
31.21
14.1
4.9
5.29
14.05
28.02
43.12
55.4
61.74
60.48
51.82
37.63
20.91
4.7
-8.86
-19.04
-26.49
-32.6
-38.66
-44.94
-50.45
-53.15
-50.92
-42.61
-28.94
-12.65
2.33
12.32
15.36
11.96
4.73
-2.99
-8.89
-12.59
-15.63
-20.14
-27.22
-35.9
-43.3
-45.9
-41.15
-28.71
-10.4
10.82
32.27
52.64
71.99
91.06
110.21
128.75
145.02
157.04
163.55
164.6
161.57
156.62
151.75
148.08
145.59
143.28
139.77
133.87
125.1
113.71
100.43
85.95
70.48
53.74
35.44
15.89
-3.49
-20.43
-32.63
-38.99
-40.46
-39.87
-40.9
-46.41
-57.2
-71.67
-86.7
-99.04
-106.66
-109.48
-109.16
-108.34
-109.73
-115.19
-125.14
-138.29
-151.59
-160.98
-162.4
-153.17
-133.13
-104.73
-72.34
-40.66
-13.36
7.86
22.98
32.98
38.98
41.74
41.74
39.49
35.66
31
26
20.68
14.59
7.19
-1.75
-11.81
-21.92
-30.61
-36.57
-39.18
-38.91
-37.31
-36.47
-38.29
-43.66
-52.21
-62.6
-73.24
-83.02
-91.83
-100.46
-110.12
-121.87
-136.12
-152.46
-169.82
-186.87
-202.42
-215.79
-226.97
-236.55
-245.64
-255.73
-268.29
-284.3
-303.77
-325.18
-345.41
-360.24
-365.43
-358.07
-337.55
-305.76
-266.29
-223.16
-179.6
-137.32
-96.71
-57.36
-18.87
18.75
55.02
89.28
121.1
150.58
178.47
206.05
235.11
267.57
304.91
347.34
393.13
438.49
478.15
506.93
521.42
521.24
509.1
489.51
466.79
443.46
419.72
394.35
366.03
334.48
300.51
265.26
229.27
192.06
152.59
110.08
64.84
18.42
-27.02
-69.62
-108.37
-143.02
-173.41
-199
-218.85
-232.09
-238.56
-239.09
-235.06
-227.6
-216.96
-202.38
-182.78
-157.7
-127.97
-95.75
-63.93
-35.33
-11.91
5.33
16.25
21.29
21.23
17.3
11.13
4.68
-0.07
-1.69
0.18
4.66
9.88
13.7
14.64
12.53
8.57
4.76
2.92
3.85
6.97
10.87
14.07
15.91
16.75
17.71
19.9
23.79
29.1
35.14
41.26
46.93
51.44
53.5
51.23
42.86
27.83
7.47
-15.26
-37.07
-55.93
-71.91
-86.74
-102.08
-117.82
-131.42
-138.88
-136.83
-124.57
-104.71
-82.21
-62.08
-47.25
-37.61
-30.62
-23.19
-13.54
-2.2
8.48
15.91
18.72
17.51
14.38
11.59
10.31
10.12
9.44
6.59
0.66
-8.31
-19.86
-33.85
-50.6
-70.27
-91.81
-112.34
-127.62
-133.64
-128.6
-113.93
-93.84
-73.44
-56.55
-44.56
-36.73
-31.73
-29.27
-30.35
-36.27
-46.81
-59.11
-68.18
-68.67
-57.33
-34.35
-3.22
30.92
63.19
90.2
110.2
122.53
127.21
125.11
118.34
110.21
104.19
102.23
103.6
104.89
101.67
90.86
72.51
49.85
27.83
10.8
0.83
-2.54
-1.45
1.81
5.65
9.31
12.38
14.33
14.48
12.42
8.57
4.27
1.34
1.33
4.78
10.96
18.25
24.81
29.32
31.28
30.86
28.57
24.9
20.12
14.4
7.91
0.96
-6.06
-12.85
-19.45
-26.33
-34.29
-44.12
-56.09
-69.64
-83.44
-95.91
-105.84
-112.97
-118
-122.16
-126.55
-131.67
-137.39
-143.29
-148.99
-154.41
-159.66
-164.83
-170.02
-175.32
-180.84
-186.46
-191.44
-194.1
-192.04
-183.01
-166.13
-142.66
-115.86
-89.72
-67.18
-48.71
-31.97
-13.13
11.09
41.52
76.04
110.49
140.3
161.98
173.5
173.99
163.52
143.44
117.02
89.2
65.15
48.07
37.52
29.73
19.82
4.67
-15.5
-37.75
-58.78
-77.11
-93.47
-109.31
-124.53
-136.51
-141.02
-134.52
-116.14
-88.25
-55.21
-21.24
11.04
41
69.16
95.99
120.94
142.48
158.91
169.36
174.29
175.18
173.78
171.13
167.35
162.09
155.25
147.59
140.53
135.36
132.39
130.65
128.37
124.01
117.06
108.18
98.7
89.78
81.76
74.22
66.5
58.33
50.1
42.67
36.71
32.2
28.17
23.18
16.06
6.55
-4.45
-15.38
-24.73
-31.9
-37.47
-42.93
-49.91
-59.37
-71.14
-83.88
-95.61
-104.35
-108.64
-107.84
-102.09
-92.13
-78.96
-63.71
-47.37
-30.81
-14.68
0.46
14.18
26.13
36.09
44.06
50.23
54.92
58.41
60.8
62.02
62.04
61.03
59.51
58.18
57.67
58.22
59.57
61.03
61.83
61.41
59.64
56.83
53.52
50.23
47.25
44.62
42.17
39.65
36.9
33.87
30.6
27.17
23.63
19.95
16.09
12.03
7.73
3.13
-1.87
-7.37
-13.4
-19.82
-26.32
-32.63
-38.53
-44.07
-49.59
-55.57
-62.52
-70.74
-80.05
-89.7
-98.35
-104.35
-106.14
-102.72
-93.96
-80.63
-64.15
-46.07
-27.69
-9.76
7.42
23.8
39.35
53.83
66.76
77.53
85.67
90.98
93.62
94.1
93.01
90.9
88.21
85.27
82.45
80.15
78.58
77.7
77.01
75.78
73.33
69.38
64.15
58.29
52.47
47.15
42.42
38.08
33.84
29.5
25.02
20.42
15.65
10.49
4.64
-2.21
-10.08
-18.69
-27.45
-35.65
-42.82
-48.88
-54.21
-59.54
-65.62
-72.94
-81.48
-90.63
-99.26
-106.02
-109.59
-109.1
-104.23
-95.31
-83.06
-68.35
-52.06
-35
-18.02
-1.99
12.23
24.02
33.14
39.75
44.17
46.69
47.44
46.37
43.56
39.35
34.38
29.43
25.2
21.96
19.65
17.92
16.4
14.91
13.41
12.1
11.17
10.82
11.09
11.89
13.02
14.22
15.21
15.78
15.75
14.99
13.42
11.02
7.86
4.08
-0.12
-4.53
-9.03
-13.66
-18.64
-24.32
-31.11
-39.25
-48.62
-58.64
-68.26
-76.17
-81.08
-82.03
-78.66
-71.3
-60.76
-48.13
-34.45
-20.49
-6.74
6.57
19.34
31.42
42.49
52.11
59.7
64.79
67.14
66.9
64.65
61.27
57.69
54.71
52.76
51.87
51.77
52.04
52.32
52.38
52.05
51.2
49.68
47.38
44.36
40.9
37.49
34.6
32.5
31.09
29.91
28.33
25.76
21.92
16.89
11.07
4.99
-0.84
-6.1
-10.72
-14.86
-18.87
-23.18
-28.29
-34.59
-42.3
-51.26
-60.76
-69.56
-76.11
-78.95
-77.19
-70.81
-60.64
-48.05
-34.46
-20.94
-8.05
4.03
15.28
25.64
34.94
42.98
49.59
54.71
58.31
60.39
60.99
60.27
58.64
56.71
55.23
54.78
55.54
57.25
59.24
60.83
61.56
61.41
60.72
59.97
59.47
59.19
58.76
57.68
55.55
52.31
48.34
44.34
41.14
39.4
39.41
41.03
43.69
46.55
48.48
48.19
44.33
35.81
22.02
2.96
-20.71
-47.93
-77.35
-107.31
-135.59
-159.26
-174.74
-178.55
-168.41
-144.19
-108.31
-65.19
-20.04
22.49
59.16
88.47
110.25
125.05
133.57
136.26
133.41
125.42
113.16
98.26
83.08
70.3
62.21
59.94
63.05
69.77
77.68
84.77
90.07
93.71
96.44
98.77
100.58
100.91
98.55
92.61
82.96
70.29
55.72
40.36
24.94
9.78
-5.09
-19.73
-34.05
-47.83
-60.76
-72.6
-83.38
-93.49
-103.67
-114.67
-126.74
-139.18
-150.36
-158.15
-160.96
-158.45
-151.91
-143.73
-136.39
-131.37
-128.72
-127.17
-124.87
-120.21
-112.38
-101.54
-88.6
-74.88
-61.63
-49.77
-39.62
-30.93
-23.04
-15.25
-7.13
1.26
9.44
16.71
22.5
26.42
28.38
28.31
26.16
21.93
15.83
8.49
0.87
-5.93
-10.98
-13.9
-14.85
-14.5
-13.73
-13.36
-14.07
-16.24
-19.92
-24.84
-30.49
-36.32
-42.02
-47.65
-53.62
-60.43
-68.24
-76.73
-85
-91.78
-95.81
-96.12
-92.26
-84.43
-73.33
-60
-45.54
-30.84
-16.48
-2.77
10.09
21.94
32.62
42.02
50.16
57.21
63.35
68.68
73.15
76.62
78.95
80.13
80.4
80.12
79.75
79.6
79.78
80.08
80.12
79.5
77.99
75.65
72.73
69.56
66.3
62.97
59.51
56
52.7
49.95
47.88
46.27
44.51
41.9
37.99
32.76
26.64
20.21
13.94
7.97
2.17
-3.76
-9.99
-16.52
-23.05
-29.12
-34.14
-37.44
-38.34
-36.23
-30.63
-21.37
-8.71
6.64
23.58
40.89
57.55
73.02
87.37
101.09
114.73
128.48
142.07
154.86
166.3
176.43
186.05
196.66
209.94
227.31
249.34
275.69
305.18
336.09
366.66
395.09
420
440.54
456.53
468.12
475.58
478.46
475.44
464.43
442.91
409.32
364.01
309.65
250.6
191.59
136.23
86.47
42.79
4.27
-29.96
-60.29
-86.69
-109.4
-129.02
-146.97
-164.54
-182.3
-201.6
-222.91
-245.66
-268.52
-290.26
-309.96
-328.67
-347.81
-368.25
-393.04
-423.38
-457.59
-491.37
-519.89
-538.76
-548.19
-550.11
-546.9
-545.54
-551.32
-565.67
-585.88
-607.59
-625.5
-639.5
-650.41
-658.52
-669.84
-688.57
-714.71
-743.92
-770.49
-787.88
-796.43
-797.59
-753.65
-644.06
-474
-274.68
-83.12
62.05
170.51
255.99
328.82
395.86
453.82
497.49
525.32
540.53
547.9
552.49
551.94
543.04
524.72
493.91
450.61
398.17
341.88
286.13
234.82
187.02
142.58
103.56
70.01
41.98
19.74
3.97
-4.62
-4.49
3.36
17.82
37.5
58.58
76.59
87.8
90.44
85.01
74.39
61.41
49.11
39.91
34.31
31.46
29.92
28.44
26.39
23.95
21.37
18.98
16.98
15.21
13.23
10.55
6.98
2.88
-0.75
-2.59
-1.51
2.77
9.39
16.41
21.48
22.55
18.64
10.02
-1.96
-15.51
-28.93
-41.1
-51.51
-60.11
-66.92
-71.83
-74.4
-73.91
-69.54
-60.57
-46.7
-28.25
-6.13
18.14
42.77
65.94
86.22
102.74
115.34
124.43
130.78
135.13
138.06
139.85
140.62
140.41
139.26
137.07
133.58
128.34
120.94
111.4
100.41
89.28
79.43
71.94
67.04
64.12
62.02
59.56
56.01
51.51
47.14
44.76
46.63
54.66
69.63
90.75
115.64
141.02
163.8
182.03
195.38
204.84
211.83
217.28
220.89
221.16
216.1
204.44
186.63
165.21
144.07
127.03
116.12
110.6
107.27
101.98
91.75
76.64
60.27
48.92
49.6
67.95
106.55
164.06
235.11
310.86
380.36
432.68
459.63
458.13
431.35
387.74
338.02
291.28
252.08
219.66
189.7
157.38
120
77.91
33.7
-9.6
-49.97
-86.76
-120.23
-150.8
-178.54
-203.41
-225.61
-245.88
-265.3
-284.9
-305.28
-326.42
-347.95
-369.52
-391.11
-413.19
-436.6
-461.99
-489.18
-516.59
-541.26
-559.79
-569.89
-571.71
-568.19
-563.85
-562.51
-565.18
-568.96
-567.86
-554.95
-525.06
-476.95
-414.26
-344.92
-279.16
-226.73
-194.3
-183.74
-192.2
-213.61
-241.11
-269.03
-293.53
-311.94
-321.77
-320.4
-305.91
-278.42
-240.98
-198.93
-158.1
-122.72
-94.19
-71.36
-51.89
-33.89
-16.81
-1.35
11.38
20.85
27.59
32.99
38.52
45.11
52.76
60.72
68.11
74.47
80.13
85.97
92.99
101.76
112.24
124.05
136.9
151.05
167.31
186.67
209.56
235.42
262.49
288.15
309.36
323.18
327.18
319.91
301.62
274.71
243.85
215.06
194.05
184.52
187.01
199.15
217.04
237.08
257.28
277.49
298.51
320.58
342.34
360.66
371.62
371.95
360.46
338.53
309.68
278.17
247.51
219.44
193.84
169.55
145.57
122.01
100.17
81.98
68.98
61.55
58.78
59
60.58
62.71
65.59
70
76.56
85.02
94.07
101.89
107.07
109.42
110.15
111.06
113.24
116.12
117.18
113.07
101.14
80.86
54.18
24.73
-3.63
-27.99
-46.72
-58.83
-63.1
-57.75
-41.24
-13.68
22.04
60.27
94.03
117.28
126.83
123.07
109.38
90.46
70.69
52.98
38.52
27.11
17.82
9.43
0.78
-9.13
-21.14
-35.9
-53.81
-75
-99.22
-125.86
-153.89
-182.12
-209.46
-235.17
-258.89
-280.41
-299.12
-313.63
-321.75
-321.13
-310.12
-288.74
-259.14
-225.23
-191.67
-162.61
-140.68
-126.61
-119.45
-117.19
-117.36
-117.44
-115.09
-108.31
-95.76
-77.05
-53.1
-26.19
0.26
22.32
36.5
40.67
34.73
20.94
3.59
-12.01
-20.86
-19.77
-8.24
11.44
35.06
57.95
76.28
87.95
92.65
91.3
85.46
76.81
66.9
57.2
49.01
43.4
41.16
42.51
47.03
53.46
59.59
62.53
59.35
48.09
28.64
2.97
-25.56
-53.56
-78.85
-101.03
-120.71
-138.38
-153.45
-164.59
-171.02
-173.9
-176.68
-183.91
-199.11
-222.98
-252.94
-284.32
-312.4
-334.09
-348.53
-356.49
-359.28
-357.76
-352.2
-342.59
-329.31
-313.61
-297.71
-284.3
-275.67
-272.59
-273.46
-274.33
-270.04
-256.02
-230.21
-193.89
-151.09
-107.01
-66.04
-30.51
-0.44
26.06
51.88
80.3
114.05
154.14
198.49
241.04
272.35
282.12
263.21
215.57
147.76
75.06
14.41
-21.6
-28.88
-12.28
17.69
49.91
76.75
95.71
108.38
117.95
127.13
137.18
148.2
159.66
170.98
181.65
191.31
200.08
208.62
218.07
229.42
242.94
257.9
273.08
287.52
301.09
314.17
326.88
338.3
346.46
349.14
345.03
334.45
319.19
301.55
283.2
264.44
244.09
220.11
190.47
154.03
111.08
63.47
14.23
-33.03
-74.91
-108.82
-133.43
-148.74
-156.13
-158.12
-158.15
-159.95
-166.64
-179.81
-198.81
-220.74
-241.04
-254.8
-258.11
-249.26
-229.19
-201.37
-170.93
-143.5
-123.9
-114.93
-116.7
-126.73
-140.85
-154.64
-164.84
-169.97
-170.07
-165.68
-157.04
-143.88
-125.91
-103.57
-78.25
-51.64
-24.61
3.52
34.47
69.66
108.75
149.14
187.07
219.48
245.52
266.9
286.55
306.69
327.31
345.92
358.65
362.07
354.58
336.93
311.65
281.79
249.89
217.42
185.09
153.36
122.98
94.91
69.69
46.85
24.67
0.86
-26.33
-57.04
-89.63
-121.46
-150.34
-175.74
-198.99
-222.3
-247.21
-273.19
-297.53
-316.46
-327.01
-328.71
-323.95
-316.97
-311.89
-310.97
-313.76
-317.77
-319.89
-317.84
-310.97
-300
-286.16
-270.33
-252.59
-232.34
-208.93
-182.35
-153.68
-125.16
-99.66
-79.73
-66.69
-60.08
-57.65
-56.11
-52.12
-43.16
-27.96
-6.64
19.42
47.65
74.52
95.9
107.9
107.95
95.73
73.39
44.89
14.76
-13.14
-36.26
-53.33
-63.75
-67.16
-63.39
-52.77
-36.46
-16.46
4.94
25.92
45.8
65.07
84.78
105.63
127.28
148.2
166.31
180.02
189
194.47
198.61
203.54
210.44
219.23
228.96
238.4
246.55
252.51
255.05
252.35
242.44
224.28
198.69
168.58
137.86
109.57
84.35
60.09
33.23
1.07
-36.44
-76.27
-113.62
-144.03
-164.92
-175.79
-177.21
-169.57
-152.8
-127.27
-95.22
-61.22
-31.34
-11.1
-3.47
-8.36
-23.79
-47.83
-79.61
-118.56
-162.6
-207.05
-245.57
-272.69
-286.49
-289.18
-285.29
-278.51
-269.36
-255.32
-233.29
-202.41
-165.37
-127.43
-93.74
-67.04
-47
-31.39
-18.05
-6.2
3.56
10.26
13.48
14.01
13.45
13.52
15.32
18.93
23.68
28.68
33.81
39.54
46.81
56.4
68.52
82.5
97.23
111.39
123.88
134.61
144.26
153.91
164.7
177.53
192.6
209.34
225.75
238.44
244.2
240.38
225.94
202.15
172.63
141.92
114.66
93.43
78.22
69.53
66.96
69.11
73.57
77.57
77.81
73.59
65.22
53.91
46.35
48.76
63.93
90.05
122.67
155.54
187.35
218.01
247.2
281.4
325.22
378.09
434.08
485.87
525.83
555.78
579.91
601.89
633.63
684.11
754.33
836.47
918.42
985.39
1033.81
1064.01
1018.68
867.17
619.27
324.96
43.47
-160.76
-299.62
-392.52
-454.54
-495.85
-517.61
-517.18
-497.1
-466.62
-437.09
-420.77
-417.82
-425.04
-439.41
-451.67
-454.61
-447.13
-434.09
-422.28
-419.29
-423.55
-431.4
-440.1
-443.73
-438
-422.46
-400.21
-375.48
-353.29
-333.36
-314.39
-295.51
-274.07
-247.85
-216.41
-181.22
-144.65
-109.85
-77.65
-48.54
-23.11
-1.07
18.25
35.38
50.46
63.26
72.99
79.35
82.21
81.9
79.44
76.62
75.45
77.67
84.39
95.82
111.32
129.26
147.04
161.45
169.44
169.13
160.5
145.29
125.98
104.45
81.14
55.2
25.6
-7.52
-41.87
-73.46
-97.77
-111.47
-113.58
-105.66
-91.09
-73.88
-57.56
-44.57
-36.16
-32.74
-34.34
-40.79
-51.7
-66.2
-82.8
-99.73
-115.38
-128.74
-139.33
-146.88
-150.76
-149.85
-142.95
-129.39
-109.82
-86.34
-62.07
-40.07
-22.38
-9.38
0.08
7.86
15.54
23.58
31.07
36.21
37.32
33.66
25.82
15.23
3.3
-9.51
-23.73
-40.36
-59.84
-81.33
-102.75
-121.43
-135.2
-142.9
-144.4
-140.11
-130.79
-117.81
-103.72
-92.57
-89.34
-98.41
-121.57
-156.75
-198.05
-237.31
-266.59
-280.48
-277.31
-258.86
-229.09
-192.55
-153.27
-114.25
-77.48
-43.98
-13.8
13.98
41.1
69.6
101.02
135.63
172.29
208.75
242.56
272.1
297.1
318.8
339.71
363.14
392.13
428.09
469.37
510.58
543.48
559.49
552.94
523.33
475.58
417.85
358.25
302.02
250.73
203.39
158.44
115.27
74.29
35.97
-0.18
-35.83
-72.96
-112.55
-153.75
-194.13
-230.48
-260.47
-283.8
-302.37
-319.56
-338.6
-360.76
-384.59
-406.35
-421.53
-426.5
-419.39
-400.01
-369.3
-328.77
-280.46
-227.05
-171.82
-118.15
-68.97
-26.6
6.99
29.68
39.37
34.86
17.27
-9.05
-36.96
-58.38
-66.8
-58.96
-35.74
-1.62
36.76
72.78
102.23
124.73
143.21
161.84
182.59
202.94
215.88
212.64
186.92
138.36
73.19
2.33
-62.3
-111.11
-138.4
-142.19
-123.14
-83.61
-27.37
40.33
112.98
183.47
245.09
292.92
324.66
340.94
344.69
339.77
329.43
315.31
297.21
273.86
244.24
208.7
169.4
129.87
93.77
63.66
40.08
21.67
6.17
-8.24
-21.95
-33.85
-42.16
-45.77
-45.03
-41.85
-38.71
-37.49
-38.62
-41.04
-43.06
-43.41
-42.16
-40.73
-41.16
-45.11
-52.98
-63.73
-75.2
-85.02
-91.38
-93.53
-91.74
-86.79
-79.52
-70.48
-60.11
-49.04
-38.4
-29.67
-24.24
-22.87
-25.43
-31.12
-38.91
-47.8
-56.81
-64.54
-68.91
-67.48
-58.2
-40.72
-17.07
8.58
31.33
47.43
55.8
58.1
57.38
55.84
53.18
46.4
31.59
6.48
-27.84
-66.91
-105.07
-137.96
-164.07
-184.22
-199.53
-209.37
-210.85
-200.32
-175.87
-139.18
-95.45
-51.46
-12.9
17.52
40.27
57.66
72.08
84.81
95.91
104.83
111.38
116.21
120.61
125.95
133.07
141.93
151.59
160.48
166.9
169.39
167.26
160.97
152.07
142.79
135.05
129.45
124.57
117.18
103.26
79.51
44.81
0.89
-47.87
-95.76
-137.27
-168.29
-186.75
-192.63
-187.84
-176.19
-163.11
-154.58
-155.08
-165.35
-181.26
-195.04
-198.65
-188.05
-165.77
-140.55
-123.87
-125.19
-148.4
-190.84
-245.01
-301.61
-352.21
-390.78
-414.07
-421.36
-414.08
-395.29
-369.11
-339.84
-311.2
-285.85
-265.15
-249.17
-236.78
-226.02
-214.61
-200.68
-183.42
-163.4
-142.31
-122.24
-104.82
-90.61
-79.06
-68.92
-59.01
-48.87
-39.1
-31.19
-26.99
-27.96
-34.57
-46.07
-60.6
-75.69
-88.84
-98.11
-102.37
-101.37
-95.43
-85.05
-70.57
-51.76
-27.8
2.72
41.24
88.42
143.11
201.76
258.73
307.67
343.54
364.24
371.1
367.92
359.03
347.4
333.96
318.05
298.84
276.63
253.25
231.36
213.4
200.76
193.65
191.63
194.04
199.77
206.95
212.89
215.16
213.38
210.58
212.71
225.92
252.51
288.24
322.68
342.94
339.12
308.29
254.96
187.89
115.36
41.57
-33.85
-113.53
-198.92
-287.94
-375.06
-453.25
-516.4
-560.89
-586.06
-593.54
-586.34
-568.06
-542.31
-512.01
-478.94
-443.47
-404.93
-362.69
-317.22
-270.62
-226.25
-187.49
-156.28
-132.26
-112.88
-94.5
-73.72
-48.38
-17.67
18.02
57.82
100.83
146.35
193.74
242.28
291.12
339.11
384.49
424.91
457.73
480.92
494.13
499.27
499.96
500.01
501.41
503.19
501.89
493.76
477.14
453.95
428.9
407.07
391.14
379.77
368.15
350.23
321.47
280.75
230.58
176.24
123.68
78.12
43.37
21.75
14.22
20.03
36.09
56.76
74.54
81.82
73.23
47.27
6.44
-44.18
-99.25
-155.08
-210.2
-264.65
-318.59
-371.25
-420.65
-464.1
-499.08
-523.66
-536.81
-538.4
-529.38
-512
-489.65
-466.19
-444.86
-427.09
-412.01
-396.96
-378.67
-354.69
-324.2
-287.95
-247.57
-204.75
-160.77
-116.41
-72.2
-28.52
14.52
57.28
100.6
145.42
191.93
238.83
283.13
320.69
347.65
361.81
363.45
354.94
339.62
320.36
298.87
275.68
250.9
224.95
198.86
173.99
151.47
131.76
114.49
98.77
83.63
68.44
53.25
38.87
26.56
17.48
12.05
9.64
8.67
7.23
3.78
-2.22
-10.26
-19.22
-27.87
-35.49
-42.07
-48.29
-55.06
-62.9
-71.44
-79.3
-84.53
-85.46
-81.4
-73.02
-61.85
-49.59
-37.48
-26.2
-16.16
-8.01
-2.56
-0.37
-1.04
-2.9
-3.27
0.52
9.99
24.54
41.32
55.75
62.64
57.53
37.88
3.95
-40.96
-91.04
-139.19
-178.75
-205.17
-217.06
-216.24
-206.72
-193.2
-179.53
-167.91
-158.92
-152.16
-147.08
-143.29
-140.53
-138.21
-135.21
-130.01
-121.15
-107.7
-89.36
-66.38
-39.44
-9.6
21.5
51.74
78.81
100.91
117.29
128.38
135.44
139.9
142.78
144.51
145.14
144.51
142.45
138.77
133.5
127.14
121.06
117.51
119.12
127.96
144.73
168.59
197.67
229.66
262.35
293.6
321.11
342.45
355.77
360.75
359
353.43
346.61
339.03
328.53
311.3
283.97
245.76
199.1
148.54
98.66
52.32
10.33
-27.31
-59.83
-84.85
-99.09
-100.19
-88.37
-66.71
-39.88
-12.05
14.63
40.1
65.1
89.36
110.71
125.63
131
125.81
111.77
92.6
72.42
54.31
39.71
28.67
20.6
14.69
10.05
5.66
0.53
-5.66
-12.04
-16.31
-15.54
-7.49
8.07
28.84
50.69
69.13
81.01
85.44
83.6
77.77
70.12
62.04
54.17
46.9
40.83
36.69
34.77
34.17
32.51
26.41
12.75
-9.98
-40.96
-77.2
-114.61
-149.47
-179.55
-204.65
-226.31
-247.2
-270.17
-297.17
-328.31
-361.55
-393.06
-418.2
-432.98
-434.91
-423.25
-398.38
-361.29
-313.5
-257.56
-197.37
-137.73
-83.16
-36.46
2
33.6
60.19
82.69
100.88
114.26
123.18
129.34
135.01
141.91
150.42
159.74
169.14
179.07
191.55
209.19
233.7
264.73
299.59
334.07
363.93
386.29
400.11
405.9
404.78
397.55
384.36
364.9
339.07
307.52
271.83
234.11
196.38
160.06
125.78
93.68
63.86
36.74
13.02
-6.66
-22.09
-33.75
-42.62
-49.8
-56.03
-61.45
-65.67
-68.15
-68.64
-67.51
-65.92
-65.6
-68.35
-75.31
-86.25
-99.29
-111.09
-117.83
-116.38
-105.43
-85.97
-60.88
-34.02
-9
11.65
26.78
36.38
41.11
41.85
39.41
34.33
26.92
17.2
5.02
-9.63
-26.38
-44.49
-62.98
-81.01
-98.1
-114
-128.44
-140.92
-150.94
-158.41
-164.1
-169.6
-176.68
-186.44
-198.65
-211.65
-222.8
-229.22
-228.4
-218.87
-200.54
-175.09
-145.87
-117.1
-92.37
-73.17
-58.19
-44.16
-27.73
-7.57
14.69
35.16
49.59
55.2
51.61
40.28
23.28
2.14
-22.36
-49.75
-79.05
-108.67
-137.11
-163.88
-190.01
-217.45
-247.74
-280.8
-314.76
-346.87
-375.01
-398.47
-417.73
-433.41
-445.42
-452.92
-455.33
-453.08
-447.84
-441.46
-434.71
-426.58
-414.88
-397.72
-374.92
-348.32
-320.87
-295.15
-272.31
-251.84
-232.25
-212.08
-190.6
-167.94
-144.91
-122.51
-101.45
-81.84
-63.17
-44.48
-24.72
-3.16
20.28
45.12
70.37
95.01
118.38
140.36
161.49
182.91
206.15
232.56
262.59
295.04
326.67
352.74
368.3
369.98
357.47
333.82
304.58
276.05
253.31
238.86
232.15
230.02
228.01
221.82
208.88
189.32
166.09
143.91
127.66
120.66
123.67
134.95
151.14
168.5
183.87
195.08
201.06
201.82
198.52
193.38
189.27
188.77
193.15
201.67
211.61
219.29
221.47
216.43
204.27
186.43
164.74
140.75
115.62
90.37
66.17
44.19
25.12
8.75
-5.98
-20.39
-35.14
-49.86
-63.23
-73.88
-81.24
-86.06
-90.41
-97.11
-109
-128.16
-155.23
-189.04
-226.85
-265.06
-300.25
-330
-353.22
-369.66
-379.27
-381.85
-377.26
-366.09
-350.1
-332.12
-315
-300.54
-288.7
-277.94
-266.27
-252.4
-236.34
-219.12
-202.03
-185.92
-170.78
-156.03
-140.96
-125.12
-108.46
-91.23
-73.74
-56.34
-39.31
-22.84
-6.95
8.68
24.64
41.54
59.77
79.17
99.16
118.92
137.63
154.49
168.71
179.43
185.98
188.44
188.08
187.27
188.79
194.57
204.68
217.11
228.63
236.42
239.51
239.19
238.16
239.02
242.72
248.21
253.15
255.27
253.51
248.23
240.53
231.27
220.52
207.72
192.43
175.02
156.78
139.37
123.91
110.44
97.93
84.84
69.96
52.99
34.77
17.03
1.8
-9.15
-14.85
-15.35
-11.51
-4.62
4.2
14.36
25.82
38.78
53.13
68.1
82.34
94.36
103.21
108.98
112.7
115.95
120.04
125.38
131.23
136
137.98
136.21
130.93
123.59
116.52
112.3
112.98
119.44
130.81
144.54
156.98
164.61
165.21
158.99
148.67
138.61
133.2
135.21
145.14
161.27
180.55
199.23
214.37
224.66
230.82
235.13
240.2
247.73
257.25
265.59
266.43
253.41
222.79
175.23
115.15
48.57
-18.99
-83.63
-143.21
-198.26
-249.13
-295.31
-335.38
-368.7
-396.81
-422.77
-449.29
-477.09
-506.83
-537.58
-567.49
-593.93
-614.56
-627.88
-632.55
-626.85
-596.28
-533.77
-443.96
-342.16
-243.26
-154.46
-77.37
-13.69
31.87
53.33
46.06
15.95
-27.3
-69.96
-99.23
-108.73
-99.44
-76.99
-47.68
-17.13
12.51
41.92
70.18
96.35
117.69
130.41
132
123
106.36
87.32
71.06
61.18
58.08
58.34
56.71
49.01
34.15
13.83
-8.19
-28.06
-42.9
-51.49
-54.65
-54.31
-52.27
-49.65
-47.11
-45.06
-44.03
-44.54
-46.67
-50.17
-54.3
-57.93
-59.93
-59.66
-57.26
-53.52
-49.3
-44.84
-39.61
-32.5
-22.43
-9.08
6.74
23.18
38.09
49.9
58.45
64.9
71.2
79.03
89.16
101.21
113.89
125.82
135.93
143.64
148.83
151.8
153.52
155.85
161.64
173.92
194.47
222.41
253.6
281.54
299.79
304.74
297.32
282.74
268.12
259.26
258.24
262.91
268.33
269.16
261.67
244.63
218.98
187.04
151.72
116.08
82.88
54.08
30.12
9.65
-10.36
-33.68
-63.65
-101.95
-148.14
-199.49
-251.25
-297.23
-330.84
-346.51
-341.39
-316.49
-276.76
-229.65
-182.8
-141.76
-108.85
-83.43
-63.36
-46.53
-31.82
-19
-8.16
0.91
8.83
16.21
23.09
28.87
32.58
33.61
32.63
31.99
35.42
46.81
68.32
98.96
134.16
166.97
190.56
200.7
197.2
183.41
164.33
144.27
125.49
108.3
92.13
76.77
62.77
51.04
42.1
35.67
31
27.64
26.01
27.46
33.63
45.43
62.33
82.3
102.48
120.18
133.62
142.19
146.02
145.31
139.91
129.28
112.96
91.25
65.45
37.63
9.99
-15.98
-39.88
-62.47
-85.1
-109.22
-135.9
-165.63
-198.02
-231.62
-263.71
-290.61
-308.44
-314.32
-307.46
-289.42
-263.59
-233.93
-203.76
-175.32
-149.97
-128.83
-113.15
-104.09
-101.82
-104.81
-109.82
-112.56
-109.22
-97.88
-79.6
-58.67
-42.03
-37.66
-52.34
-88.96
-144.71
-210.88
-274.99
-324.62
-351.23
-352.59
-332.46
-297.97
-256.23
-211.79
-165.98
-117.87
-66.16
-10.65
47.04
103.78
155.55
198.24
228.29
243.17
241.75
224.37
192.64
149.09
97.18
41.38
-12.77
-59.18
-92.45
-109.44
-110.52
-99.4
-81.72
-62.78
-45.73
-30.98
-17.02
-2.21
13.72
29.25
41.95
49.8
52.21
49.93
44.35
36.71
27.82
18.44
9.75
3.37
0.56
1.22
3.37
3.71
-0.98
-12.41
-30.16
-52.11
-75.48
-97.82
-117.19
-131.9
-140.11
-139.99
-130.37
-111.53
-85.58
-56.09
-27.09
-1.88
17.77
31.79
41.54
49.25
57.48
68.62
84.57
106.36
133.91
165.79
199.2
230.33
255.07
270.2
274.52
269.58
259.34
248.74
241.67
239.16
238.92
236.39
226.99
208.22
180.64
147.12
110.96
73.97
35.78
-5.49
-51.62
-102.78
-157.21
-211.82
-263.12
-308.06
-344.08
-369
-381.05
-379.28
-364.07
-337.43
-302.64
-263.58
-223.94
-186.92
-155.1
-130.5
-114.32
-106.51
-105.47
-108.34
-111.9
-113.54
-111.89
-106.58
-97.53
-84.34
-66.29
-42.94
-14.91
15.79
46.15
73.22
95.11
111.39
122.89
130.89
136.47
140.23
142.46
143.58
144.19
144.86
145.63
145.64
143.26
136.62
124.39
106.44
83.95
59.02
33.96
10.79
-9.12
-24.9
-36.19
-43.01
-45.82
-45.38
-42.56
-37.82
-30.97
-21.2
-7.65
9.79
29.84
49.82
66.36
76.64
79.51
76.01
68.9
61.54
56.61
55.19
56.62
59.04
60.21
58.45
53.02
44.35
33.72
22.87
13.46
6.72
3.32
3.4
6.81
13.26
22.24
32.99
44.44
55.44
65.13
73.24
80.01
85.74
90.43
93.51
94.18
91.78
86.15
77.68
67.01
54.7
41.12
26.36
10.26
-7.68
-28.31
-52.64
-81.29
-113.79
-148.05
-180.66
-207.73
-226.28
-235.27
-235.72
-230.17
-221.27
-210.64
-198.23
-182.59
-161.89
-135.41
-104.49
-72.63
-44.59
-24.72
-15.32
-15.72
-22.44
-30.41
-34.73
-32.37
-23.06
-9.23
5.16
16.16
21.33
20.44
15.26
8.49
2.57
-1.22
-2.83
-2.88
-1.72
0.85
5.44
12.38
21.09
30.12
37.77
43.01
46.08
48.31
51.33
56.06
62.25
68.65
73.8
76.87
78.04
78.27
78.72
80.12
82.59
85.88
89.67
93.89
98.55
103.53
108.36
112.28
114.52
114.75
113.31
111.08
109.07
107.87
107.34
106.7
105.03
101.86
97.63
93.49
90.82
90.48
92.41
95.72
99.15
101.8
103.41
104.35
105.14
106.09
107.11
107.9
108.23
108.16
107.99
108.03
108.45
109.31
110.76
113.16
117.08
123.05
131.3
141.74
154.13
168.43
184.93
204.13
226.23
250.69
276.13
300.6
322.23
339.83
353.19
362.84
369.74
374.85
378.97
382.5
385.32
386.55
384.62
377.54
363.32
341.05
311.46
276.97
240.24
203.43
167.76
133.66
101.11
69.69
39.14
9.4
-19.24
-46.93
-73.93
-100.35
-125.78
-149.54
-171.67
-192.3
-211.55
-228.61
-243.36
-255.84
-265.97
-273.27
-277.37
-280.51
-285.04
-292.51
-301.11
-310.31
-319.8
-329.24
-337.43
-343.41
-351.59
-366.31
-390.02
-417.93
-448.03
-479.09
-510.36
-539.68
-565.37
-594.05
-632.11
-682.8
-738.3
-796.19
-856.17
-918.4
-978.74
-1029.99
-1072.24
-1103.8
-1120.84
-1110.67
-1074.74
-1023.35
-970.29
-922.89
-826.64
-649.58
-393.05
-147.26
60.72
224.96
359.34
464.86
543.32
599.1
629.97
636.86
625.01
611.65
603.11
598.79
593.98
587.18
579.89
568.82
553.19
535.34
526.49
529.12
540.22
553.6
565.56
574.55
576.13
567.43
547.87
523.48
496.77
469.34
443.01
422.01
410.69
409.13
414.51
422.29
430.1
434.53
433.14
424.66
409.3
387.46
358.54
322.17
279.2
232.77
186.21
142.49
103.66
70.92
44.58
24.27
9.27
-1.28
-8.26
-12.63
-15.38
-17.52
-19.96
-23.4
-28.28
-34.67
-42.34
-50.92
-60.08
-69.67
-79.8
-90.77
-102.83
-115.98
-129.87
-143.81
-157
-168.83
-179.17
-188.43
-197.58
